urea_concentration (mM),wavelength (nm),absorbance (A),solvent,solvent_id,background,background_id,date
0.5,190,0.584,water,0,water,0,44496
0.5,191,0.477,water,0,water,0,44496
0.5,192,0.379,water,0,water,0,44496
0.5,193,0.297,water,0,water,0,44496
0.5,194,0.239,water,0,water,0,44496
0.5,195,0.183,water,0,water,0,44496
0.5,196,0.138,water,0,water,0,44496
0.5,197,0.106,water,0,water,0,44496
0.5,198,0.082,water,0,water,0,44496
0.5,199,0.061,water,0,water,0,44496
0.5,200,0.046,water,0,water,0,44496
0.5,201,0.036,water,0,water,0,44496
0.5,202,0.028,water,0,water,0,44496
0.5,203,0.022,water,0,water,0,44496
0.5,204,0.019,water,0,water,0,44496
0.5,205,0.015,water,0,water,0,44496
0.5,206,0.013,water,0,water,0,44496
0.5,207,0.012,water,0,water,0,44496
0.5,208,0.01,water,0,water,0,44496
0.5,209,0.009,water,0,water,0,44496
0.5,210,0.009,water,0,water,0,44496
0.5,211,0.007,water,0,water,0,44496
0.5,212,0.007,water,0,water,0,44496
0.5,213,0.006,water,0,water,0,44496
0.5,214,0.006,water,0,water,0,44496
0.5,215,0.006,water,0,water,0,44496
0.5,216,0.005,water,0,water,0,44496
0.5,217,0.005,water,0,water,0,44496
0.5,218,0.004,water,0,water,0,44496
0.5,219,0.005,water,0,water,0,44496
0.5,220,0.005,water,0,water,0,44496
0.5,221,0.005,water,0,water,0,44496
0.5,222,0.005,water,0,water,0,44496
0.5,223,0.005,water,0,water,0,44496
0.5,224,0.005,water,0,water,0,44496
0.5,225,0.004,water,0,water,0,44496
0.5,226,0.005,water,0,water,0,44496
0.5,227,0.005,water,0,water,0,44496
0.5,228,0.005,water,0,water,0,44496
0.5,229,0.005,water,0,water,0,44496
0.5,230,0.005,water,0,water,0,44496
0.5,231,0.005,water,0,water,0,44496
0.5,232,0.005,water,0,water,0,44496
0.5,233,0.004,water,0,water,0,44496
0.5,234,0.004,water,0,water,0,44496
0.5,235,0.004,water,0,water,0,44496
0.5,236,0.004,water,0,water,0,44496
0.5,237,0.004,water,0,water,0,44496
0.5,238,0.004,water,0,water,0,44496
0.5,239,0.004,water,0,water,0,44496
0.5,240,0.003,water,0,water,0,44496
0.5,241,0.004,water,0,water,0,44496
0.5,242,0.004,water,0,water,0,44496
0.5,243,0.004,water,0,water,0,44496
0.5,244,0.004,water,0,water,0,44496
0.5,245,0.003,water,0,water,0,44496
0.5,246,0.003,water,0,water,0,44496
0.5,247,0.003,water,0,water,0,44496
0.5,248,0.003,water,0,water,0,44496
0.5,249,0.003,water,0,water,0,44496
0.5,250,0.002,water,0,water,0,44496
0.5,251,0.002,water,0,water,0,44496
0.5,252,0.002,water,0,water,0,44496
0.5,253,0.001,water,0,water,0,44496
0.5,254,0.002,water,0,water,0,44496
0.5,255,0.001,water,0,water,0,44496
0.5,256,0.001,water,0,water,0,44496
0.5,257,0.001,water,0,water,0,44496
0.5,258,0,water,0,water,0,44496
0.5,259,0.001,water,0,water,0,44496
0.5,260,0.001,water,0,water,0,44496
0.5,261,0.001,water,0,water,0,44496
0.5,262,0,water,0,water,0,44496
0.5,263,0,water,0,water,0,44496
0.5,264,0,water,0,water,0,44496
0.5,265,0,water,0,water,0,44496
0.5,266,0,water,0,water,0,44496
0.5,267,0,water,0,water,0,44496
0.5,268,0,water,0,water,0,44496
0.5,269,0,water,0,water,0,44496
0.5,270,0,water,0,water,0,44496
0.5,271,0,water,0,water,0,44496
0.5,272,0,water,0,water,0,44496
0.5,273,0,water,0,water,0,44496
0.5,274,0,water,0,water,0,44496
0.5,275,0,water,0,water,0,44496
0.5,276,0,water,0,water,0,44496
0.5,277,0,water,0,water,0,44496
0.5,278,0,water,0,water,0,44496
0.5,279,0,water,0,water,0,44496
0.5,280,0,water,0,water,0,44496
0.5,281,0,water,0,water,0,44496
0.5,282,0,water,0,water,0,44496
0.5,283,0,water,0,water,0,44496
0.5,284,0,water,0,water,0,44496
0.5,285,0,water,0,water,0,44496
0.5,286,0,water,0,water,0,44496
0.5,287,0,water,0,water,0,44496
0.5,288,0,water,0,water,0,44496
0.5,289,0,water,0,water,0,44496
0.5,290,0,water,0,water,0,44496
0.5,291,0,water,0,water,0,44496
0.5,292,0,water,0,water,0,44496
0.5,293,0,water,0,water,0,44496
0.5,294,0,water,0,water,0,44496
0.5,295,0,water,0,water,0,44496
0.5,296,-0.001,water,0,water,0,44496
0.5,297,0,water,0,water,0,44496
0.5,298,0,water,0,water,0,44496
0.5,299,0,water,0,water,0,44496
0.5,300,0,water,0,water,0,44496
0.5,190,0.582,water,0,water,0,44496
0.5,191,0.474,water,0,water,0,44496
0.5,192,0.376,water,0,water,0,44496
0.5,193,0.295,water,0,water,0,44496
0.5,194,0.237,water,0,water,0,44496
0.5,195,0.18,water,0,water,0,44496
0.5,196,0.136,water,0,water,0,44496
0.5,197,0.103,water,0,water,0,44496
0.5,198,0.079,water,0,water,0,44496
0.5,199,0.058,water,0,water,0,44496
0.5,200,0.044,water,0,water,0,44496
0.5,201,0.033,water,0,water,0,44496
0.5,202,0.025,water,0,water,0,44496
0.5,203,0.02,water,0,water,0,44496
0.5,204,0.016,water,0,water,0,44496
0.5,205,0.013,water,0,water,0,44496
0.5,206,0.011,water,0,water,0,44496
0.5,207,0.01,water,0,water,0,44496
0.5,208,0.008,water,0,water,0,44496
0.5,209,0.007,water,0,water,0,44496
0.5,210,0.007,water,0,water,0,44496
0.5,211,0.005,water,0,water,0,44496
0.5,212,0.004,water,0,water,0,44496
0.5,213,0.004,water,0,water,0,44496
0.5,214,0.004,water,0,water,0,44496
0.5,215,0.004,water,0,water,0,44496
0.5,216,0.004,water,0,water,0,44496
0.5,217,0.003,water,0,water,0,44496
0.5,218,0.003,water,0,water,0,44496
0.5,219,0.003,water,0,water,0,44496
0.5,220,0.003,water,0,water,0,44496
0.5,221,0.003,water,0,water,0,44496
0.5,222,0.003,water,0,water,0,44496
0.5,223,0.003,water,0,water,0,44496
0.5,224,0.003,water,0,water,0,44496
0.5,225,0.002,water,0,water,0,44496
0.5,226,0.003,water,0,water,0,44496
0.5,227,0.003,water,0,water,0,44496
0.5,228,0.003,water,0,water,0,44496
0.5,229,0.003,water,0,water,0,44496
0.5,230,0.003,water,0,water,0,44496
0.5,231,0.003,water,0,water,0,44496
0.5,232,0.003,water,0,water,0,44496
0.5,233,0.003,water,0,water,0,44496
0.5,234,0.003,water,0,water,0,44496
0.5,235,0.003,water,0,water,0,44496
0.5,236,0.003,water,0,water,0,44496
0.5,237,0.003,water,0,water,0,44496
0.5,238,0.003,water,0,water,0,44496
0.5,239,0.003,water,0,water,0,44496
0.5,240,0.002,water,0,water,0,44496
0.5,241,0.003,water,0,water,0,44496
0.5,242,0.003,water,0,water,0,44496
0.5,243,0.003,water,0,water,0,44496
0.5,244,0.003,water,0,water,0,44496
0.5,245,0.002,water,0,water,0,44496
0.5,246,0.002,water,0,water,0,44496
0.5,247,0.002,water,0,water,0,44496
0.5,248,0.002,water,0,water,0,44496
0.5,249,0.002,water,0,water,0,44496
0.5,250,0.002,water,0,water,0,44496
0.5,251,0.001,water,0,water,0,44496
0.5,252,0.001,water,0,water,0,44496
0.5,253,0.001,water,0,water,0,44496
0.5,254,0.001,water,0,water,0,44496
0.5,255,0.001,water,0,water,0,44496
0.5,256,0.001,water,0,water,0,44496
0.5,257,0,water,0,water,0,44496
0.5,258,0,water,0,water,0,44496
0.5,259,0,water,0,water,0,44496
0.5,260,0,water,0,water,0,44496
0.5,261,0,water,0,water,0,44496
0.5,262,0,water,0,water,0,44496
0.5,263,0,water,0,water,0,44496
0.5,264,-0.001,water,0,water,0,44496
0.5,265,-0.001,water,0,water,0,44496
0.5,266,-0.001,water,0,water,0,44496
0.5,267,-0.001,water,0,water,0,44496
0.5,268,-0.001,water,0,water,0,44496
0.5,269,-0.001,water,0,water,0,44496
0.5,270,-0.001,water,0,water,0,44496
0.5,271,-0.001,water,0,water,0,44496
0.5,272,-0.001,water,0,water,0,44496
0.5,273,-0.001,water,0,water,0,44496
0.5,274,-0.001,water,0,water,0,44496
0.5,275,-0.001,water,0,water,0,44496
0.5,276,-0.001,water,0,water,0,44496
0.5,277,-0.001,water,0,water,0,44496
0.5,278,-0.001,water,0,water,0,44496
0.5,279,-0.001,water,0,water,0,44496
0.5,280,-0.001,water,0,water,0,44496
0.5,281,-0.001,water,0,water,0,44496
0.5,282,-0.001,water,0,water,0,44496
0.5,283,-0.001,water,0,water,0,44496
0.5,284,-0.001,water,0,water,0,44496
0.5,285,-0.001,water,0,water,0,44496
0.5,286,-0.001,water,0,water,0,44496
0.5,287,-0.001,water,0,water,0,44496
0.5,288,-0.001,water,0,water,0,44496
0.5,289,-0.001,water,0,water,0,44496
0.5,290,-0.001,water,0,water,0,44496
0.5,291,-0.001,water,0,water,0,44496
0.5,292,-0.001,water,0,water,0,44496
0.5,293,-0.001,water,0,water,0,44496
0.5,294,-0.001,water,0,water,0,44496
0.5,295,-0.001,water,0,water,0,44496
0.5,296,-0.001,water,0,water,0,44496
0.5,297,-0.001,water,0,water,0,44496
0.5,298,-0.001,water,0,water,0,44496
0.5,299,-0.001,water,0,water,0,44496
0.5,300,-0.001,water,0,water,0,44496
0.5,190,0.598,water,0,water,0,44496
0.5,191,0.483,water,0,water,0,44496
0.5,192,0.386,water,0,water,0,44496
0.5,193,0.303,water,0,water,0,44496
0.5,194,0.247,water,0,water,0,44496
0.5,195,0.189,water,0,water,0,44496
0.5,196,0.145,water,0,water,0,44496
0.5,197,0.113,water,0,water,0,44496
0.5,198,0.089,water,0,water,0,44496
0.5,199,0.067,water,0,water,0,44496
0.5,200,0.052,water,0,water,0,44496
0.5,201,0.041,water,0,water,0,44496
0.5,202,0.032,water,0,water,0,44496
0.5,203,0.026,water,0,water,0,44496
0.5,204,0.022,water,0,water,0,44496
0.5,205,0.018,water,0,water,0,44496
0.5,206,0.016,water,0,water,0,44496
0.5,207,0.015,water,0,water,0,44496
0.5,208,0.013,water,0,water,0,44496
0.5,209,0.012,water,0,water,0,44496
0.5,210,0.011,water,0,water,0,44496
0.5,211,0.01,water,0,water,0,44496
0.5,212,0.009,water,0,water,0,44496
0.5,213,0.009,water,0,water,0,44496
0.5,214,0.008,water,0,water,0,44496
0.5,215,0.008,water,0,water,0,44496
0.5,216,0.008,water,0,water,0,44496
0.5,217,0.007,water,0,water,0,44496
0.5,218,0.007,water,0,water,0,44496
0.5,219,0.007,water,0,water,0,44496
0.5,220,0.007,water,0,water,0,44496
0.5,221,0.007,water,0,water,0,44496
0.5,222,0.007,water,0,water,0,44496
0.5,223,0.007,water,0,water,0,44496
0.5,224,0.006,water,0,water,0,44496
0.5,225,0.005,water,0,water,0,44496
0.5,226,0.006,water,0,water,0,44496
0.5,227,0.006,water,0,water,0,44496
0.5,228,0.006,water,0,water,0,44496
0.5,229,0.006,water,0,water,0,44496
0.5,230,0.006,water,0,water,0,44496
0.5,231,0.006,water,0,water,0,44496
0.5,232,0.006,water,0,water,0,44496
0.5,233,0.006,water,0,water,0,44496
0.5,234,0.005,water,0,water,0,44496
0.5,235,0.005,water,0,water,0,44496
0.5,236,0.005,water,0,water,0,44496
0.5,237,0.005,water,0,water,0,44496
0.5,238,0.005,water,0,water,0,44496
0.5,239,0.005,water,0,water,0,44496
0.5,240,0.005,water,0,water,0,44496
0.5,241,0.005,water,0,water,0,44496
0.5,242,0.005,water,0,water,0,44496
0.5,243,0.004,water,0,water,0,44496
0.5,244,0.004,water,0,water,0,44496
0.5,245,0.004,water,0,water,0,44496
0.5,246,0.004,water,0,water,0,44496
0.5,247,0.004,water,0,water,0,44496
0.5,248,0.004,water,0,water,0,44496
0.5,249,0.004,water,0,water,0,44496
0.5,250,0.003,water,0,water,0,44496
0.5,251,0.003,water,0,water,0,44496
0.5,252,0.003,water,0,water,0,44496
0.5,253,0.003,water,0,water,0,44496
0.5,254,0.003,water,0,water,0,44496
0.5,255,0.002,water,0,water,0,44496
0.5,256,0.002,water,0,water,0,44496
0.5,257,0.002,water,0,water,0,44496
0.5,258,0.001,water,0,water,0,44496
0.5,259,0.002,water,0,water,0,44496
0.5,260,0.002,water,0,water,0,44496
0.5,261,0.001,water,0,water,0,44496
0.5,262,0.001,water,0,water,0,44496
0.5,263,0.001,water,0,water,0,44496
0.5,264,0.001,water,0,water,0,44496
0.5,265,0.001,water,0,water,0,44496
0.5,266,0.001,water,0,water,0,44496
0.5,267,0.001,water,0,water,0,44496
0.5,268,0.001,water,0,water,0,44496
0.5,269,0.001,water,0,water,0,44496
0.5,270,0.001,water,0,water,0,44496
0.5,271,0.001,water,0,water,0,44496
0.5,272,0,water,0,water,0,44496
0.5,273,0,water,0,water,0,44496
0.5,274,0,water,0,water,0,44496
0.5,275,0,water,0,water,0,44496
0.5,276,0,water,0,water,0,44496
0.5,277,0,water,0,water,0,44496
0.5,278,0,water,0,water,0,44496
0.5,279,0,water,0,water,0,44496
0.5,280,0,water,0,water,0,44496
0.5,281,0,water,0,water,0,44496
0.5,282,0,water,0,water,0,44496
0.5,283,0,water,0,water,0,44496
0.5,284,0,water,0,water,0,44496
0.5,285,0,water,0,water,0,44496
0.5,286,0,water,0,water,0,44496
0.5,287,0,water,0,water,0,44496
0.5,288,0,water,0,water,0,44496
0.5,289,0,water,0,water,0,44496
0.5,290,0,water,0,water,0,44496
0.5,291,0,water,0,water,0,44496
0.5,292,0.001,water,0,water,0,44496
0.5,293,0,water,0,water,0,44496
0.5,294,0,water,0,water,0,44496
0.5,295,0,water,0,water,0,44496
0.5,296,0,water,0,water,0,44496
0.5,297,0,water,0,water,0,44496
0.5,298,0,water,0,water,0,44496
0.5,299,0,water,0,water,0,44496
0.5,300,0,water,0,water,0,44496
4,190,1.792,water,0,water,0,44496
4,191,1.859,water,0,water,0,44496
4,192,1.862,water,0,water,0,44496
4,193,1.713,water,0,water,0,44496
4,194,1.441,water,0,water,0,44496
4,195,1.154,water,0,water,0,44496
4,196,0.883,water,0,water,0,44496
4,197,0.681,water,0,water,0,44496
4,198,0.516,water,0,water,0,44496
4,199,0.374,water,0,water,0,44496
4,200,0.268,water,0,water,0,44496
4,201,0.192,water,0,water,0,44496
4,202,0.139,water,0,water,0,44496
4,203,0.102,water,0,water,0,44496
4,204,0.074,water,0,water,0,44496
4,205,0.054,water,0,water,0,44496
4,206,0.041,water,0,water,0,44496
4,207,0.032,water,0,water,0,44496
4,208,0.024,water,0,water,0,44496
4,209,0.018,water,0,water,0,44496
4,210,0.015,water,0,water,0,44496
4,211,0.011,water,0,water,0,44496
4,212,0.008,water,0,water,0,44496
4,213,0.007,water,0,water,0,44496
4,214,0.006,water,0,water,0,44496
4,215,0.005,water,0,water,0,44496
4,216,0.005,water,0,water,0,44496
4,217,0.004,water,0,water,0,44496
4,218,0.004,water,0,water,0,44496
4,219,0.004,water,0,water,0,44496
4,220,0.004,water,0,water,0,44496
4,221,0.004,water,0,water,0,44496
4,222,0.004,water,0,water,0,44496
4,223,0.003,water,0,water,0,44496
4,224,0.003,water,0,water,0,44496
4,225,0.002,water,0,water,0,44496
4,226,0.003,water,0,water,0,44496
4,227,0.003,water,0,water,0,44496
4,228,0.003,water,0,water,0,44496
4,229,0.003,water,0,water,0,44496
4,230,0.003,water,0,water,0,44496
4,231,0.003,water,0,water,0,44496
4,232,0.003,water,0,water,0,44496
4,233,0.003,water,0,water,0,44496
4,234,0.002,water,0,water,0,44496
4,235,0.003,water,0,water,0,44496
4,236,0.003,water,0,water,0,44496
4,237,0.003,water,0,water,0,44496
4,238,0.002,water,0,water,0,44496
4,239,0.002,water,0,water,0,44496
4,240,0.002,water,0,water,0,44496
4,241,0.002,water,0,water,0,44496
4,242,0.002,water,0,water,0,44496
4,243,0.002,water,0,water,0,44496
4,244,0.002,water,0,water,0,44496
4,245,0.002,water,0,water,0,44496
4,246,0.001,water,0,water,0,44496
4,247,0.001,water,0,water,0,44496
4,248,0.001,water,0,water,0,44496
4,249,0.001,water,0,water,0,44496
4,250,0.001,water,0,water,0,44496
4,251,0.001,water,0,water,0,44496
4,252,0,water,0,water,0,44496
4,253,0,water,0,water,0,44496
4,254,0,water,0,water,0,44496
4,255,0,water,0,water,0,44496
4,256,0,water,0,water,0,44496
4,257,0,water,0,water,0,44496
4,258,0,water,0,water,0,44496
4,259,0,water,0,water,0,44496
4,260,0,water,0,water,0,44496
4,261,0,water,0,water,0,44496
4,262,0,water,0,water,0,44496
4,263,0,water,0,water,0,44496
4,264,0,water,0,water,0,44496
4,265,-0.001,water,0,water,0,44496
4,266,0,water,0,water,0,44496
4,267,-0.001,water,0,water,0,44496
4,268,0,water,0,water,0,44496
4,269,0,water,0,water,0,44496
4,270,-0.001,water,0,water,0,44496
4,271,-0.001,water,0,water,0,44496
4,272,0,water,0,water,0,44496
4,273,0,water,0,water,0,44496
4,274,-0.001,water,0,water,0,44496
4,275,-0.001,water,0,water,0,44496
4,276,-0.001,water,0,water,0,44496
4,277,-0.001,water,0,water,0,44496
4,278,0,water,0,water,0,44496
4,279,0,water,0,water,0,44496
4,280,-0.001,water,0,water,0,44496
4,281,0,water,0,water,0,44496
4,282,-0.001,water,0,water,0,44496
4,283,0,water,0,water,0,44496
4,284,-0.001,water,0,water,0,44496
4,285,0,water,0,water,0,44496
4,286,0,water,0,water,0,44496
4,287,-0.001,water,0,water,0,44496
4,288,0,water,0,water,0,44496
4,289,0,water,0,water,0,44496
4,290,-0.001,water,0,water,0,44496
4,291,0,water,0,water,0,44496
4,292,0,water,0,water,0,44496
4,293,-0.001,water,0,water,0,44496
4,294,-0.001,water,0,water,0,44496
4,295,-0.001,water,0,water,0,44496
4,296,-0.001,water,0,water,0,44496
4,297,-0.001,water,0,water,0,44496
4,298,-0.001,water,0,water,0,44496
4,299,0,water,0,water,0,44496
4,300,-0.001,water,0,water,0,44496
4,190,1.778,water,0,water,0,44496
4,191,1.841,water,0,water,0,44496
4,192,1.863,water,0,water,0,44496
4,193,1.732,water,0,water,0,44496
4,194,1.469,water,0,water,0,44496
4,195,1.178,water,0,water,0,44496
4,196,0.905,water,0,water,0,44496
4,197,0.695,water,0,water,0,44496
4,198,0.524,water,0,water,0,44496
4,199,0.379,water,0,water,0,44496
4,200,0.27,water,0,water,0,44496
4,201,0.194,water,0,water,0,44496
4,202,0.139,water,0,water,0,44496
4,203,0.102,water,0,water,0,44496
4,204,0.074,water,0,water,0,44496
4,205,0.053,water,0,water,0,44496
4,206,0.04,water,0,water,0,44496
4,207,0.031,water,0,water,0,44496
4,208,0.022,water,0,water,0,44496
4,209,0.017,water,0,water,0,44496
4,210,0.013,water,0,water,0,44496
4,211,0.009,water,0,water,0,44496
4,212,0.007,water,0,water,0,44496
4,213,0.005,water,0,water,0,44496
4,214,0.004,water,0,water,0,44496
4,215,0.004,water,0,water,0,44496
4,216,0.003,water,0,water,0,44496
4,217,0.002,water,0,water,0,44496
4,218,0.002,water,0,water,0,44496
4,219,0.002,water,0,water,0,44496
4,220,0.002,water,0,water,0,44496
4,221,0.002,water,0,water,0,44496
4,222,0.002,water,0,water,0,44496
4,223,0.002,water,0,water,0,44496
4,224,0.002,water,0,water,0,44496
4,225,0,water,0,water,0,44496
4,226,0.002,water,0,water,0,44496
4,227,0.002,water,0,water,0,44496
4,228,0.002,water,0,water,0,44496
4,229,0.002,water,0,water,0,44496
4,230,0.002,water,0,water,0,44496
4,231,0.002,water,0,water,0,44496
4,232,0.002,water,0,water,0,44496
4,233,0.002,water,0,water,0,44496
4,234,0.002,water,0,water,0,44496
4,235,0.002,water,0,water,0,44496
4,236,0.002,water,0,water,0,44496
4,237,0.002,water,0,water,0,44496
4,238,0.002,water,0,water,0,44496
4,239,0.002,water,0,water,0,44496
4,240,0.001,water,0,water,0,44496
4,241,0.002,water,0,water,0,44496
4,242,0.002,water,0,water,0,44496
4,243,0.002,water,0,water,0,44496
4,244,0.002,water,0,water,0,44496
4,245,0.001,water,0,water,0,44496
4,246,0.001,water,0,water,0,44496
4,247,0.001,water,0,water,0,44496
4,248,0.001,water,0,water,0,44496
4,249,0.001,water,0,water,0,44496
4,250,0,water,0,water,0,44496
4,251,0,water,0,water,0,44496
4,252,0,water,0,water,0,44496
4,253,0,water,0,water,0,44496
4,254,0,water,0,water,0,44496
4,255,0,water,0,water,0,44496
4,256,0,water,0,water,0,44496
4,257,0,water,0,water,0,44496
4,258,-0.001,water,0,water,0,44496
4,259,0,water,0,water,0,44496
4,260,0,water,0,water,0,44496
4,261,-0.001,water,0,water,0,44496
4,262,-0.001,water,0,water,0,44496
4,263,-0.001,water,0,water,0,44496
4,264,-0.001,water,0,water,0,44496
4,265,-0.001,water,0,water,0,44496
4,266,-0.001,water,0,water,0,44496
4,267,-0.001,water,0,water,0,44496
4,268,-0.001,water,0,water,0,44496
4,269,-0.001,water,0,water,0,44496
4,270,-0.001,water,0,water,0,44496
4,271,-0.001,water,0,water,0,44496
4,272,-0.001,water,0,water,0,44496
4,273,-0.001,water,0,water,0,44496
4,274,-0.001,water,0,water,0,44496
4,275,-0.001,water,0,water,0,44496
4,276,-0.001,water,0,water,0,44496
4,277,-0.001,water,0,water,0,44496
4,278,-0.001,water,0,water,0,44496
4,279,-0.001,water,0,water,0,44496
4,280,-0.001,water,0,water,0,44496
4,281,-0.001,water,0,water,0,44496
4,282,-0.001,water,0,water,0,44496
4,283,-0.001,water,0,water,0,44496
4,284,-0.001,water,0,water,0,44496
4,285,-0.001,water,0,water,0,44496
4,286,-0.001,water,0,water,0,44496
4,287,-0.001,water,0,water,0,44496
4,288,-0.001,water,0,water,0,44496
4,289,-0.001,water,0,water,0,44496
4,290,-0.001,water,0,water,0,44496
4,291,-0.001,water,0,water,0,44496
4,292,-0.001,water,0,water,0,44496
4,293,-0.001,water,0,water,0,44496
4,294,-0.001,water,0,water,0,44496
4,295,-0.001,water,0,water,0,44496
4,296,-0.001,water,0,water,0,44496
4,297,-0.001,water,0,water,0,44496
4,298,-0.001,water,0,water,0,44496
4,299,-0.001,water,0,water,0,44496
4,300,-0.001,water,0,water,0,44496
4,190,1.788,water,0,water,0,44496
4,191,1.846,water,0,water,0,44496
4,192,1.856,water,0,water,0,44496
4,193,1.721,water,0,water,0,44496
4,194,1.456,water,0,water,0,44496
4,195,1.169,water,0,water,0,44496
4,196,0.895,water,0,water,0,44496
4,197,0.687,water,0,water,0,44496
4,198,0.517,water,0,water,0,44496
4,199,0.376,water,0,water,0,44496
4,200,0.268,water,0,water,0,44496
4,201,0.192,water,0,water,0,44496
4,202,0.137,water,0,water,0,44496
4,203,0.1,water,0,water,0,44496
4,204,0.073,water,0,water,0,44496
4,205,0.052,water,0,water,0,44496
4,206,0.039,water,0,water,0,44496
4,207,0.031,water,0,water,0,44496
4,208,0.022,water,0,water,0,44496
4,209,0.016,water,0,water,0,44496
4,210,0.013,water,0,water,0,44496
4,211,0.009,water,0,water,0,44496
4,212,0.007,water,0,water,0,44496
4,213,0.005,water,0,water,0,44496
4,214,0.004,water,0,water,0,44496
4,215,0.003,water,0,water,0,44496
4,216,0.003,water,0,water,0,44496
4,217,0.002,water,0,water,0,44496
4,218,0.002,water,0,water,0,44496
4,219,0.002,water,0,water,0,44496
4,220,0.002,water,0,water,0,44496
4,221,0.002,water,0,water,0,44496
4,222,0.002,water,0,water,0,44496
4,223,0.002,water,0,water,0,44496
4,224,0.002,water,0,water,0,44496
4,225,0.001,water,0,water,0,44496
4,226,0.002,water,0,water,0,44496
4,227,0.002,water,0,water,0,44496
4,228,0.002,water,0,water,0,44496
4,229,0.002,water,0,water,0,44496
4,230,0.002,water,0,water,0,44496
4,231,0.002,water,0,water,0,44496
4,232,0.003,water,0,water,0,44496
4,233,0.003,water,0,water,0,44496
4,234,0.003,water,0,water,0,44496
4,235,0.002,water,0,water,0,44496
4,236,0.002,water,0,water,0,44496
4,237,0.002,water,0,water,0,44496
4,238,0.002,water,0,water,0,44496
4,239,0.002,water,0,water,0,44496
4,240,0.002,water,0,water,0,44496
4,241,0.002,water,0,water,0,44496
4,242,0.002,water,0,water,0,44496
4,243,0.002,water,0,water,0,44496
4,244,0.002,water,0,water,0,44496
4,245,0.002,water,0,water,0,44496
4,246,0.001,water,0,water,0,44496
4,247,0.001,water,0,water,0,44496
4,248,0.001,water,0,water,0,44496
4,249,0.001,water,0,water,0,44496
4,250,0.001,water,0,water,0,44496
4,251,0.001,water,0,water,0,44496
4,252,0,water,0,water,0,44496
4,253,0,water,0,water,0,44496
4,254,0.001,water,0,water,0,44496
4,255,0,water,0,water,0,44496
4,256,0,water,0,water,0,44496
4,257,0,water,0,water,0,44496
4,258,0,water,0,water,0,44496
4,259,0,water,0,water,0,44496
4,260,0,water,0,water,0,44496
4,261,0,water,0,water,0,44496
4,262,0,water,0,water,0,44496
4,263,0,water,0,water,0,44496
4,264,0,water,0,water,0,44496
4,265,-0.001,water,0,water,0,44496
4,266,0,water,0,water,0,44496
4,267,-0.001,water,0,water,0,44496
4,268,-0.001,water,0,water,0,44496
4,269,0,water,0,water,0,44496
4,270,0,water,0,water,0,44496
4,271,0,water,0,water,0,44496
4,272,-0.001,water,0,water,0,44496
4,273,0,water,0,water,0,44496
4,274,0,water,0,water,0,44496
4,275,-0.001,water,0,water,0,44496
4,276,-0.001,water,0,water,0,44496
4,277,-0.001,water,0,water,0,44496
4,278,-0.001,water,0,water,0,44496
4,279,-0.001,water,0,water,0,44496
4,280,-0.001,water,0,water,0,44496
4,281,-0.001,water,0,water,0,44496
4,282,-0.001,water,0,water,0,44496
4,283,0,water,0,water,0,44496
4,284,-0.001,water,0,water,0,44496
4,285,-0.001,water,0,water,0,44496
4,286,0,water,0,water,0,44496
4,287,-0.001,water,0,water,0,44496
4,288,-0.001,water,0,water,0,44496
4,289,0,water,0,water,0,44496
4,290,-0.001,water,0,water,0,44496
4,291,0,water,0,water,0,44496
4,292,0,water,0,water,0,44496
4,293,0,water,0,water,0,44496
4,294,-0.001,water,0,water,0,44496
4,295,0,water,0,water,0,44496
4,296,-0.001,water,0,water,0,44496
4,297,0,water,0,water,0,44496
4,298,0,water,0,water,0,44496
4,299,0,water,0,water,0,44496
4,300,0,water,0,water,0,44496
8,190,1.829,water,0,water,0,44496
8,191,1.91,water,0,water,0,44496
8,192,2,water,0,water,0,44496
8,193,2.05,water,0,water,0,44496
8,194,1.999,water,0,water,0,44496
8,195,1.868,water,0,water,0,44496
8,196,1.584,water,0,water,0,44496
8,197,1.274,water,0,water,0,44496
8,198,0.985,water,0,water,0,44496
8,199,0.72,water,0,water,0,44496
8,200,0.517,water,0,water,0,44496
8,201,0.373,water,0,water,0,44496
8,202,0.269,water,0,water,0,44496
8,203,0.198,water,0,water,0,44496
8,204,0.144,water,0,water,0,44496
8,205,0.104,water,0,water,0,44496
8,206,0.079,water,0,water,0,44496
8,207,0.061,water,0,water,0,44496
8,208,0.044,water,0,water,0,44496
8,209,0.033,water,0,water,0,44496
8,210,0.026,water,0,water,0,44496
8,211,0.018,water,0,water,0,44496
8,212,0.014,water,0,water,0,44496
8,213,0.011,water,0,water,0,44496
8,214,0.009,water,0,water,0,44496
8,215,0.007,water,0,water,0,44496
8,216,0.006,water,0,water,0,44496
8,217,0.005,water,0,water,0,44496
8,218,0.004,water,0,water,0,44496
8,219,0.004,water,0,water,0,44496
8,220,0.004,water,0,water,0,44496
8,221,0.003,water,0,water,0,44496
8,222,0.003,water,0,water,0,44496
8,223,0.003,water,0,water,0,44496
8,224,0.003,water,0,water,0,44496
8,225,0.001,water,0,water,0,44496
8,226,0.003,water,0,water,0,44496
8,227,0.003,water,0,water,0,44496
8,228,0.003,water,0,water,0,44496
8,229,0.003,water,0,water,0,44496
8,230,0.003,water,0,water,0,44496
8,231,0.003,water,0,water,0,44496
8,232,0.003,water,0,water,0,44496
8,233,0.003,water,0,water,0,44496
8,234,0.002,water,0,water,0,44496
8,235,0.003,water,0,water,0,44496
8,236,0.003,water,0,water,0,44496
8,237,0.002,water,0,water,0,44496
8,238,0.002,water,0,water,0,44496
8,239,0.002,water,0,water,0,44496
8,240,0.002,water,0,water,0,44496
8,241,0.002,water,0,water,0,44496
8,242,0.002,water,0,water,0,44496
8,243,0.002,water,0,water,0,44496
8,244,0.002,water,0,water,0,44496
8,245,0.002,water,0,water,0,44496
8,246,0.001,water,0,water,0,44496
8,247,0.001,water,0,water,0,44496
8,248,0.001,water,0,water,0,44496
8,249,0.001,water,0,water,0,44496
8,250,0.001,water,0,water,0,44496
8,251,0.001,water,0,water,0,44496
8,252,0.001,water,0,water,0,44496
8,253,0,water,0,water,0,44496
8,254,0,water,0,water,0,44496
8,255,0,water,0,water,0,44496
8,256,0,water,0,water,0,44496
8,257,0,water,0,water,0,44496
8,258,-0.001,water,0,water,0,44496
8,259,0,water,0,water,0,44496
8,260,-0.001,water,0,water,0,44496
8,261,0,water,0,water,0,44496
8,262,-0.001,water,0,water,0,44496
8,263,-0.001,water,0,water,0,44496
8,264,-0.001,water,0,water,0,44496
8,265,-0.001,water,0,water,0,44496
8,266,-0.001,water,0,water,0,44496
8,267,-0.001,water,0,water,0,44496
8,268,-0.001,water,0,water,0,44496
8,269,-0.001,water,0,water,0,44496
8,270,-0.001,water,0,water,0,44496
8,271,-0.001,water,0,water,0,44496
8,272,-0.001,water,0,water,0,44496
8,273,-0.001,water,0,water,0,44496
8,274,-0.001,water,0,water,0,44496
8,275,-0.001,water,0,water,0,44496
8,276,-0.001,water,0,water,0,44496
8,277,-0.001,water,0,water,0,44496
8,278,-0.001,water,0,water,0,44496
8,279,-0.001,water,0,water,0,44496
8,280,-0.001,water,0,water,0,44496
8,281,-0.001,water,0,water,0,44496
8,282,-0.001,water,0,water,0,44496
8,283,-0.001,water,0,water,0,44496
8,284,-0.001,water,0,water,0,44496
8,285,-0.001,water,0,water,0,44496
8,286,-0.001,water,0,water,0,44496
8,287,-0.001,water,0,water,0,44496
8,288,-0.001,water,0,water,0,44496
8,289,-0.001,water,0,water,0,44496
8,290,-0.001,water,0,water,0,44496
8,291,-0.001,water,0,water,0,44496
8,292,-0.001,water,0,water,0,44496
8,293,-0.001,water,0,water,0,44496
8,294,-0.001,water,0,water,0,44496
8,295,-0.001,water,0,water,0,44496
8,296,-0.001,water,0,water,0,44496
8,297,-0.001,water,0,water,0,44496
8,298,-0.001,water,0,water,0,44496
8,299,-0.001,water,0,water,0,44496
8,300,-0.001,water,0,water,0,44496
8,190,1.819,water,0,water,0,44496
8,191,1.915,water,0,water,0,44496
8,192,2.006,water,0,water,0,44496
8,193,2.05,water,0,water,0,44496
8,194,2.005,water,0,water,0,44496
8,195,1.873,water,0,water,0,44496
8,196,1.597,water,0,water,0,44496
8,197,1.289,water,0,water,0,44496
8,198,0.996,water,0,water,0,44496
8,199,0.733,water,0,water,0,44496
8,200,0.524,water,0,water,0,44496
8,201,0.38,water,0,water,0,44496
8,202,0.275,water,0,water,0,44496
8,203,0.203,water,0,water,0,44496
8,204,0.149,water,0,water,0,44496
8,205,0.109,water,0,water,0,44496
8,206,0.083,water,0,water,0,44496
8,207,0.065,water,0,water,0,44496
8,208,0.048,water,0,water,0,44496
8,209,0.037,water,0,water,0,44496
8,210,0.029,water,0,water,0,44496
8,211,0.022,water,0,water,0,44496
8,212,0.018,water,0,water,0,44496
8,213,0.015,water,0,water,0,44496
8,214,0.012,water,0,water,0,44496
8,215,0.011,water,0,water,0,44496
8,216,0.009,water,0,water,0,44496
8,217,0.008,water,0,water,0,44496
8,218,0.008,water,0,water,0,44496
8,219,0.008,water,0,water,0,44496
8,220,0.007,water,0,water,0,44496
8,221,0.007,water,0,water,0,44496
8,222,0.007,water,0,water,0,44496
8,223,0.007,water,0,water,0,44496
8,224,0.006,water,0,water,0,44496
8,225,0.004,water,0,water,0,44496
8,226,0.006,water,0,water,0,44496
8,227,0.006,water,0,water,0,44496
8,228,0.006,water,0,water,0,44496
8,229,0.006,water,0,water,0,44496
8,230,0.006,water,0,water,0,44496
8,231,0.006,water,0,water,0,44496
8,232,0.006,water,0,water,0,44496
8,233,0.006,water,0,water,0,44496
8,234,0.006,water,0,water,0,44496
8,235,0.005,water,0,water,0,44496
8,236,0.005,water,0,water,0,44496
8,237,0.006,water,0,water,0,44496
8,238,0.005,water,0,water,0,44496
8,239,0.005,water,0,water,0,44496
8,240,0.005,water,0,water,0,44496
8,241,0.005,water,0,water,0,44496
8,242,0.005,water,0,water,0,44496
8,243,0.005,water,0,water,0,44496
8,244,0.005,water,0,water,0,44496
8,245,0.005,water,0,water,0,44496
8,246,0.004,water,0,water,0,44496
8,247,0.004,water,0,water,0,44496
8,248,0.004,water,0,water,0,44496
8,249,0.004,water,0,water,0,44496
8,250,0.003,water,0,water,0,44496
8,251,0.003,water,0,water,0,44496
8,252,0.003,water,0,water,0,44496
8,253,0.002,water,0,water,0,44496
8,254,0.003,water,0,water,0,44496
8,255,0.003,water,0,water,0,44496
8,256,0.003,water,0,water,0,44496
8,257,0.002,water,0,water,0,44496
8,258,0.002,water,0,water,0,44496
8,259,0.002,water,0,water,0,44496
8,260,0.002,water,0,water,0,44496
8,261,0.002,water,0,water,0,44496
8,262,0.002,water,0,water,0,44496
8,263,0.002,water,0,water,0,44496
8,264,0.002,water,0,water,0,44496
8,265,0.001,water,0,water,0,44496
8,266,0.002,water,0,water,0,44496
8,267,0.002,water,0,water,0,44496
8,268,0.001,water,0,water,0,44496
8,269,0.001,water,0,water,0,44496
8,270,0.002,water,0,water,0,44496
8,271,0.001,water,0,water,0,44496
8,272,0.001,water,0,water,0,44496
8,273,0.001,water,0,water,0,44496
8,274,0.001,water,0,water,0,44496
8,275,0.001,water,0,water,0,44496
8,276,0.001,water,0,water,0,44496
8,277,0.001,water,0,water,0,44496
8,278,0.001,water,0,water,0,44496
8,279,0.001,water,0,water,0,44496
8,280,0.001,water,0,water,0,44496
8,281,0.001,water,0,water,0,44496
8,282,0.001,water,0,water,0,44496
8,283,0.001,water,0,water,0,44496
8,284,0.001,water,0,water,0,44496
8,285,0.001,water,0,water,0,44496
8,286,0.001,water,0,water,0,44496
8,287,0.001,water,0,water,0,44496
8,288,0.001,water,0,water,0,44496
8,289,0.001,water,0,water,0,44496
8,290,0.001,water,0,water,0,44496
8,291,0.002,water,0,water,0,44496
8,292,0.002,water,0,water,0,44496
8,293,0.001,water,0,water,0,44496
8,294,0.001,water,0,water,0,44496
8,295,0.001,water,0,water,0,44496
8,296,0.001,water,0,water,0,44496
8,297,0.001,water,0,water,0,44496
8,298,0.001,water,0,water,0,44496
8,299,0.001,water,0,water,0,44496
8,300,0.001,water,0,water,0,44496
8,190,1.816,water,0,water,0,44496
8,191,1.909,water,0,water,0,44496
8,192,1.997,water,0,water,0,44496
8,193,2.056,water,0,water,0,44496
8,194,2.008,water,0,water,0,44496
8,195,1.867,water,0,water,0,44496
8,196,1.593,water,0,water,0,44496
8,197,1.285,water,0,water,0,44496
8,198,0.995,water,0,water,0,44496
8,199,0.73,water,0,water,0,44496
8,200,0.524,water,0,water,0,44496
8,201,0.379,water,0,water,0,44496
8,202,0.276,water,0,water,0,44496
8,203,0.203,water,0,water,0,44496
8,204,0.149,water,0,water,0,44496
8,205,0.109,water,0,water,0,44496
8,206,0.083,water,0,water,0,44496
8,207,0.066,water,0,water,0,44496
8,208,0.048,water,0,water,0,44496
8,209,0.037,water,0,water,0,44496
8,210,0.03,water,0,water,0,44496
8,211,0.022,water,0,water,0,44496
8,212,0.018,water,0,water,0,44496
8,213,0.015,water,0,water,0,44496
8,214,0.013,water,0,water,0,44496
8,215,0.011,water,0,water,0,44496
8,216,0.01,water,0,water,0,44496
8,217,0.009,water,0,water,0,44496
8,218,0.008,water,0,water,0,44496
8,219,0.008,water,0,water,0,44496
8,220,0.007,water,0,water,0,44496
8,221,0.007,water,0,water,0,44496
8,222,0.007,water,0,water,0,44496
8,223,0.006,water,0,water,0,44496
8,224,0.006,water,0,water,0,44496
8,225,0.004,water,0,water,0,44496
8,226,0.006,water,0,water,0,44496
8,227,0.006,water,0,water,0,44496
8,228,0.006,water,0,water,0,44496
8,229,0.006,water,0,water,0,44496
8,230,0.006,water,0,water,0,44496
8,231,0.006,water,0,water,0,44496
8,232,0.006,water,0,water,0,44496
8,233,0.005,water,0,water,0,44496
8,234,0.005,water,0,water,0,44496
8,235,0.005,water,0,water,0,44496
8,236,0.005,water,0,water,0,44496
8,237,0.005,water,0,water,0,44496
8,238,0.005,water,0,water,0,44496
8,239,0.005,water,0,water,0,44496
8,240,0.004,water,0,water,0,44496
8,241,0.004,water,0,water,0,44496
8,242,0.004,water,0,water,0,44496
8,243,0.004,water,0,water,0,44496
8,244,0.004,water,0,water,0,44496
8,245,0.004,water,0,water,0,44496
8,246,0.003,water,0,water,0,44496
8,247,0.003,water,0,water,0,44496
8,248,0.003,water,0,water,0,44496
8,249,0.003,water,0,water,0,44496
8,250,0.003,water,0,water,0,44496
8,251,0.003,water,0,water,0,44496
8,252,0.002,water,0,water,0,44496
8,253,0.002,water,0,water,0,44496
8,254,0.002,water,0,water,0,44496
8,255,0.002,water,0,water,0,44496
8,256,0.002,water,0,water,0,44496
8,257,0.002,water,0,water,0,44496
8,258,0,water,0,water,0,44496
8,259,0.001,water,0,water,0,44496
8,260,0.001,water,0,water,0,44496
8,261,0.001,water,0,water,0,44496
8,262,0.001,water,0,water,0,44496
8,263,0.001,water,0,water,0,44496
8,264,0.001,water,0,water,0,44496
8,265,0.001,water,0,water,0,44496
8,266,0.001,water,0,water,0,44496
8,267,0,water,0,water,0,44496
8,268,0.001,water,0,water,0,44496
8,269,0.001,water,0,water,0,44496
8,270,0,water,0,water,0,44496
8,271,0,water,0,water,0,44496
8,272,0,water,0,water,0,44496
8,273,0.001,water,0,water,0,44496
8,274,0,water,0,water,0,44496
8,275,0,water,0,water,0,44496
8,276,0,water,0,water,0,44496
8,277,0,water,0,water,0,44496
8,278,0,water,0,water,0,44496
8,279,0,water,0,water,0,44496
8,280,0,water,0,water,0,44496
8,281,0,water,0,water,0,44496
8,282,0,water,0,water,0,44496
8,283,0,water,0,water,0,44496
8,284,0,water,0,water,0,44496
8,285,0,water,0,water,0,44496
8,286,0,water,0,water,0,44496
8,287,0,water,0,water,0,44496
8,288,0,water,0,water,0,44496
8,289,0,water,0,water,0,44496
8,290,0,water,0,water,0,44496
8,291,0,water,0,water,0,44496
8,292,0,water,0,water,0,44496
8,293,0,water,0,water,0,44496
8,294,0,water,0,water,0,44496
8,295,0,water,0,water,0,44496
8,296,0,water,0,water,0,44496
8,297,0,water,0,water,0,44496
8,298,0,water,0,water,0,44496
8,299,0,water,0,water,0,44496
8,300,0,water,0,water,0,44496
15,190,1.862,water,0,water,0,44496
15,191,1.944,water,0,water,0,44496
15,192,2.051,water,0,water,0,44496
15,193,2.111,water,0,water,0,44496
15,194,2.11,water,0,water,0,44496
15,195,2.114,water,0,water,0,44496
15,196,2.107,water,0,water,0,44496
15,197,1.971,water,0,water,0,44496
15,198,1.67,water,0,water,0,44496
15,199,1.275,water,0,water,0,44496
15,200,0.933,water,0,water,0,44496
15,201,0.683,water,0,water,0,44496
15,202,0.499,water,0,water,0,44496
15,203,0.367,water,0,water,0,44496
15,204,0.267,water,0,water,0,44496
15,205,0.193,water,0,water,0,44496
15,206,0.147,water,0,water,0,44496
15,207,0.114,water,0,water,0,44496
15,208,0.082,water,0,water,0,44496
15,209,0.061,water,0,water,0,44496
15,210,0.047,water,0,water,0,44496
15,211,0.035,water,0,water,0,44496
15,212,0.027,water,0,water,0,44496
15,213,0.022,water,0,water,0,44496
15,214,0.017,water,0,water,0,44496
15,215,0.015,water,0,water,0,44496
15,216,0.012,water,0,water,0,44496
15,217,0.011,water,0,water,0,44496
15,218,0.01,water,0,water,0,44496
15,219,0.009,water,0,water,0,44496
15,220,0.009,water,0,water,0,44496
15,221,0.008,water,0,water,0,44496
15,222,0.008,water,0,water,0,44496
15,223,0.007,water,0,water,0,44496
15,224,0.007,water,0,water,0,44496
15,225,0.007,water,0,water,0,44496
15,226,0.007,water,0,water,0,44496
15,227,0.006,water,0,water,0,44496
15,228,0.006,water,0,water,0,44496
15,229,0.006,water,0,water,0,44496
15,230,0.006,water,0,water,0,44496
15,231,0.006,water,0,water,0,44496
15,232,0.006,water,0,water,0,44496
15,233,0.006,water,0,water,0,44496
15,234,0.005,water,0,water,0,44496
15,235,0.005,water,0,water,0,44496
15,236,0.005,water,0,water,0,44496
15,237,0.005,water,0,water,0,44496
15,238,0.005,water,0,water,0,44496
15,239,0.005,water,0,water,0,44496
15,240,0.005,water,0,water,0,44496
15,241,0.004,water,0,water,0,44496
15,242,0.004,water,0,water,0,44496
15,243,0.004,water,0,water,0,44496
15,244,0.004,water,0,water,0,44496
15,245,0.004,water,0,water,0,44496
15,246,0.004,water,0,water,0,44496
15,247,0.004,water,0,water,0,44496
15,248,0.003,water,0,water,0,44496
15,249,0.003,water,0,water,0,44496
15,250,0.003,water,0,water,0,44496
15,251,0.003,water,0,water,0,44496
15,252,0.002,water,0,water,0,44496
15,253,0.002,water,0,water,0,44496
15,254,0.002,water,0,water,0,44496
15,255,0.002,water,0,water,0,44496
15,256,0.002,water,0,water,0,44496
15,257,0.001,water,0,water,0,44496
15,258,0,water,0,water,0,44496
15,259,0.001,water,0,water,0,44496
15,260,0.001,water,0,water,0,44496
15,261,0.001,water,0,water,0,44496
15,262,0.001,water,0,water,0,44496
15,263,0.001,water,0,water,0,44496
15,264,0.001,water,0,water,0,44496
15,265,0,water,0,water,0,44496
15,266,0.001,water,0,water,0,44496
15,267,0,water,0,water,0,44496
15,268,0,water,0,water,0,44496
15,269,0,water,0,water,0,44496
15,270,0,water,0,water,0,44496
15,271,0,water,0,water,0,44496
15,272,0,water,0,water,0,44496
15,273,0,water,0,water,0,44496
15,274,0,water,0,water,0,44496
15,275,0,water,0,water,0,44496
15,276,0,water,0,water,0,44496
15,277,0,water,0,water,0,44496
15,278,0,water,0,water,0,44496
15,279,0,water,0,water,0,44496
15,280,0,water,0,water,0,44496
15,281,0,water,0,water,0,44496
15,282,0,water,0,water,0,44496
15,283,0,water,0,water,0,44496
15,284,0,water,0,water,0,44496
15,285,0,water,0,water,0,44496
15,286,0,water,0,water,0,44496
15,287,0,water,0,water,0,44496
15,288,0,water,0,water,0,44496
15,289,0,water,0,water,0,44496
15,290,0,water,0,water,0,44496
15,291,0,water,0,water,0,44496
15,292,0,water,0,water,0,44496
15,293,0,water,0,water,0,44496
15,294,0,water,0,water,0,44496
15,295,0,water,0,water,0,44496
15,296,0,water,0,water,0,44496
15,297,0,water,0,water,0,44496
15,298,0,water,0,water,0,44496
15,299,0,water,0,water,0,44496
15,300,0,water,0,water,0,44496
15,190,1.841,water,0,water,0,44496
15,191,1.931,water,0,water,0,44496
15,192,2.037,water,0,water,0,44496
15,193,2.095,water,0,water,0,44496
15,194,2.097,water,0,water,0,44496
15,195,2.098,water,0,water,0,44496
15,196,2.095,water,0,water,0,44496
15,197,1.958,water,0,water,0,44496
15,198,1.657,water,0,water,0,44496
15,199,1.265,water,0,water,0,44496
15,200,0.925,water,0,water,0,44496
15,201,0.679,water,0,water,0,44496
15,202,0.494,water,0,water,0,44496
15,203,0.36,water,0,water,0,44496
15,204,0.263,water,0,water,0,44496
15,205,0.191,water,0,water,0,44496
15,206,0.144,water,0,water,0,44496
15,207,0.11,water,0,water,0,44496
15,208,0.079,water,0,water,0,44496
15,209,0.058,water,0,water,0,44496
15,210,0.044,water,0,water,0,44496
15,211,0.032,water,0,water,0,44496
15,212,0.025,water,0,water,0,44496
15,213,0.019,water,0,water,0,44496
15,214,0.015,water,0,water,0,44496
15,215,0.012,water,0,water,0,44496
15,216,0.01,water,0,water,0,44496
15,217,0.008,water,0,water,0,44496
15,218,0.007,water,0,water,0,44496
15,219,0.007,water,0,water,0,44496
15,220,0.006,water,0,water,0,44496
15,221,0.006,water,0,water,0,44496
15,222,0.006,water,0,water,0,44496
15,223,0.005,water,0,water,0,44496
15,224,0.005,water,0,water,0,44496
15,225,0.004,water,0,water,0,44496
15,226,0.005,water,0,water,0,44496
15,227,0.005,water,0,water,0,44496
15,228,0.005,water,0,water,0,44496
15,229,0.005,water,0,water,0,44496
15,230,0.005,water,0,water,0,44496
15,231,0.005,water,0,water,0,44496
15,232,0.005,water,0,water,0,44496
15,233,0.005,water,0,water,0,44496
15,234,0.004,water,0,water,0,44496
15,235,0.005,water,0,water,0,44496
15,236,0.004,water,0,water,0,44496
15,237,0.004,water,0,water,0,44496
15,238,0.004,water,0,water,0,44496
15,239,0.004,water,0,water,0,44496
15,240,0.004,water,0,water,0,44496
15,241,0.004,water,0,water,0,44496
15,242,0.004,water,0,water,0,44496
15,243,0.004,water,0,water,0,44496
15,244,0.004,water,0,water,0,44496
15,245,0.004,water,0,water,0,44496
15,246,0.003,water,0,water,0,44496
15,247,0.003,water,0,water,0,44496
15,248,0.003,water,0,water,0,44496
15,249,0.003,water,0,water,0,44496
15,250,0.003,water,0,water,0,44496
15,251,0.002,water,0,water,0,44496
15,252,0.002,water,0,water,0,44496
15,253,0.001,water,0,water,0,44496
15,254,0.002,water,0,water,0,44496
15,255,0.002,water,0,water,0,44496
15,256,0.001,water,0,water,0,44496
15,257,0.001,water,0,water,0,44496
15,258,0.001,water,0,water,0,44496
15,259,0.001,water,0,water,0,44496
15,260,0.001,water,0,water,0,44496
15,261,0.001,water,0,water,0,44496
15,262,0.001,water,0,water,0,44496
15,263,0,water,0,water,0,44496
15,264,0,water,0,water,0,44496
15,265,0,water,0,water,0,44496
15,266,0,water,0,water,0,44496
15,267,0,water,0,water,0,44496
15,268,0,water,0,water,0,44496
15,269,0,water,0,water,0,44496
15,270,0,water,0,water,0,44496
15,271,0,water,0,water,0,44496
15,272,0,water,0,water,0,44496
15,273,0,water,0,water,0,44496
15,274,0,water,0,water,0,44496
15,275,0,water,0,water,0,44496
15,276,0,water,0,water,0,44496
15,277,0,water,0,water,0,44496
15,278,0,water,0,water,0,44496
15,279,0,water,0,water,0,44496
15,280,0,water,0,water,0,44496
15,281,0,water,0,water,0,44496
15,282,0,water,0,water,0,44496
15,283,0,water,0,water,0,44496
15,284,0,water,0,water,0,44496
15,285,0,water,0,water,0,44496
15,286,0,water,0,water,0,44496
15,287,0,water,0,water,0,44496
15,288,0,water,0,water,0,44496
15,289,0,water,0,water,0,44496
15,290,0,water,0,water,0,44496
15,291,0,water,0,water,0,44496
15,292,0,water,0,water,0,44496
15,293,0,water,0,water,0,44496
15,294,0,water,0,water,0,44496
15,295,0,water,0,water,0,44496
15,296,0,water,0,water,0,44496
15,297,0,water,0,water,0,44496
15,298,0,water,0,water,0,44496
15,299,0,water,0,water,0,44496
15,300,0,water,0,water,0,44496
15,190,1.843,water,0,water,0,44496
15,191,1.929,water,0,water,0,44496
15,192,2.035,water,0,water,0,44496
15,193,2.098,water,0,water,0,44496
15,194,2.094,water,0,water,0,44496
15,195,2.101,water,0,water,0,44496
15,196,2.092,water,0,water,0,44496
15,197,1.956,water,0,water,0,44496
15,198,1.655,water,0,water,0,44496
15,199,1.264,water,0,water,0,44496
15,200,0.932,water,0,water,0,44496
15,201,0.678,water,0,water,0,44496
15,202,0.495,water,0,water,0,44496
15,203,0.362,water,0,water,0,44496
15,204,0.265,water,0,water,0,44496
15,205,0.192,water,0,water,0,44496
15,206,0.145,water,0,water,0,44496
15,207,0.111,water,0,water,0,44496
15,208,0.079,water,0,water,0,44496
15,209,0.059,water,0,water,0,44496
15,210,0.045,water,0,water,0,44496
15,211,0.033,water,0,water,0,44496
15,212,0.026,water,0,water,0,44496
15,213,0.02,water,0,water,0,44496
15,214,0.016,water,0,water,0,44496
15,215,0.013,water,0,water,0,44496
15,216,0.011,water,0,water,0,44496
15,217,0.01,water,0,water,0,44496
15,218,0.009,water,0,water,0,44496
15,219,0.008,water,0,water,0,44496
15,220,0.007,water,0,water,0,44496
15,221,0.007,water,0,water,0,44496
15,222,0.007,water,0,water,0,44496
15,223,0.006,water,0,water,0,44496
15,224,0.006,water,0,water,0,44496
15,225,0.004,water,0,water,0,44496
15,226,0.006,water,0,water,0,44496
15,227,0.006,water,0,water,0,44496
15,228,0.006,water,0,water,0,44496
15,229,0.006,water,0,water,0,44496
15,230,0.006,water,0,water,0,44496
15,231,0.006,water,0,water,0,44496
15,232,0.006,water,0,water,0,44496
15,233,0.005,water,0,water,0,44496
15,234,0.005,water,0,water,0,44496
15,235,0.005,water,0,water,0,44496
15,236,0.005,water,0,water,0,44496
15,237,0.005,water,0,water,0,44496
15,238,0.005,water,0,water,0,44496
15,239,0.005,water,0,water,0,44496
15,240,0.004,water,0,water,0,44496
15,241,0.005,water,0,water,0,44496
15,242,0.005,water,0,water,0,44496
15,243,0.004,water,0,water,0,44496
15,244,0.004,water,0,water,0,44496
15,245,0.004,water,0,water,0,44496
15,246,0.004,water,0,water,0,44496
15,247,0.004,water,0,water,0,44496
15,248,0.004,water,0,water,0,44496
15,249,0.003,water,0,water,0,44496
15,250,0.003,water,0,water,0,44496
15,251,0.003,water,0,water,0,44496
15,252,0.002,water,0,water,0,44496
15,253,0.002,water,0,water,0,44496
15,254,0.002,water,0,water,0,44496
15,255,0.002,water,0,water,0,44496
15,256,0.002,water,0,water,0,44496
15,257,0.002,water,0,water,0,44496
15,258,0.001,water,0,water,0,44496
15,259,0.002,water,0,water,0,44496
15,260,0.001,water,0,water,0,44496
15,261,0.001,water,0,water,0,44496
15,262,0.001,water,0,water,0,44496
15,263,0.001,water,0,water,0,44496
15,264,0.001,water,0,water,0,44496
15,265,0.001,water,0,water,0,44496
15,266,0.001,water,0,water,0,44496
15,267,0.001,water,0,water,0,44496
15,268,0.001,water,0,water,0,44496
15,269,0.001,water,0,water,0,44496
15,270,0,water,0,water,0,44496
15,271,0,water,0,water,0,44496
15,272,0.001,water,0,water,0,44496
15,273,0.001,water,0,water,0,44496
15,274,0.001,water,0,water,0,44496
15,275,0,water,0,water,0,44496
15,276,0,water,0,water,0,44496
15,277,0,water,0,water,0,44496
15,278,0,water,0,water,0,44496
15,279,0,water,0,water,0,44496
15,280,0,water,0,water,0,44496
15,281,0,water,0,water,0,44496
15,282,0,water,0,water,0,44496
15,283,0,water,0,water,0,44496
15,284,0,water,0,water,0,44496
15,285,0,water,0,water,0,44496
15,286,0,water,0,water,0,44496
15,287,0,water,0,water,0,44496
15,288,0.001,water,0,water,0,44496
15,289,0.001,water,0,water,0,44496
15,290,0,water,0,water,0,44496
15,291,0.001,water,0,water,0,44496
15,292,0.001,water,0,water,0,44496
15,293,0,water,0,water,0,44496
15,294,0,water,0,water,0,44496
15,295,0,water,0,water,0,44496
15,296,0,water,0,water,0,44496
15,297,0,water,0,water,0,44496
15,298,0,water,0,water,0,44496
15,299,0,water,0,water,0,44496
15,300,0,water,0,water,0,44496
20,190,1.844,water,0,water,0,44496
20,191,1.956,water,0,water,0,44496
20,192,2.048,water,0,water,0,44496
20,193,2.114,water,0,water,0,44496
20,194,2.113,water,0,water,0,44496
20,195,2.124,water,0,water,0,44496
20,196,2.152,water,0,water,0,44496
20,197,2.132,water,0,water,0,44496
20,198,1.94,water,0,water,0,44496
20,199,1.563,water,0,water,0,44496
20,200,1.177,water,0,water,0,44496
20,201,0.87,water,0,water,0,44496
20,202,0.641,water,0,water,0,44496
20,203,0.469,water,0,water,0,44496
20,204,0.345,water,0,water,0,44496
20,205,0.251,water,0,water,0,44496
20,206,0.189,water,0,water,0,44496
20,207,0.144,water,0,water,0,44496
20,208,0.103,water,0,water,0,44496
20,209,0.077,water,0,water,0,44496
20,210,0.059,water,0,water,0,44496
20,211,0.043,water,0,water,0,44496
20,212,0.033,water,0,water,0,44496
20,213,0.026,water,0,water,0,44496
20,214,0.021,water,0,water,0,44496
20,215,0.017,water,0,water,0,44496
20,216,0.014,water,0,water,0,44496
20,217,0.012,water,0,water,0,44496
20,218,0.011,water,0,water,0,44496
20,219,0.011,water,0,water,0,44496
20,220,0.01,water,0,water,0,44496
20,221,0.009,water,0,water,0,44496
20,222,0.009,water,0,water,0,44496
20,223,0.008,water,0,water,0,44496
20,224,0.008,water,0,water,0,44496
20,225,0.006,water,0,water,0,44496
20,226,0.008,water,0,water,0,44496
20,227,0.008,water,0,water,0,44496
20,228,0.007,water,0,water,0,44496
20,229,0.007,water,0,water,0,44496
20,230,0.007,water,0,water,0,44496
20,231,0.007,water,0,water,0,44496
20,232,0.007,water,0,water,0,44496
20,233,0.007,water,0,water,0,44496
20,234,0.007,water,0,water,0,44496
20,235,0.007,water,0,water,0,44496
20,236,0.006,water,0,water,0,44496
20,237,0.007,water,0,water,0,44496
20,238,0.006,water,0,water,0,44496
20,239,0.006,water,0,water,0,44496
20,240,0.006,water,0,water,0,44496
20,241,0.006,water,0,water,0,44496
20,242,0.006,water,0,water,0,44496
20,243,0.006,water,0,water,0,44496
20,244,0.006,water,0,water,0,44496
20,245,0.006,water,0,water,0,44496
20,246,0.005,water,0,water,0,44496
20,247,0.005,water,0,water,0,44496
20,248,0.005,water,0,water,0,44496
20,249,0.005,water,0,water,0,44496
20,250,0.004,water,0,water,0,44496
20,251,0.004,water,0,water,0,44496
20,252,0.004,water,0,water,0,44496
20,253,0.003,water,0,water,0,44496
20,254,0.003,water,0,water,0,44496
20,255,0.003,water,0,water,0,44496
20,256,0.003,water,0,water,0,44496
20,257,0.003,water,0,water,0,44496
20,258,0.002,water,0,water,0,44496
20,259,0.003,water,0,water,0,44496
20,260,0.002,water,0,water,0,44496
20,261,0.002,water,0,water,0,44496
20,262,0.002,water,0,water,0,44496
20,263,0.002,water,0,water,0,44496
20,264,0.002,water,0,water,0,44496
20,265,0.002,water,0,water,0,44496
20,266,0.001,water,0,water,0,44496
20,267,0.001,water,0,water,0,44496
20,268,0.001,water,0,water,0,44496
20,269,0.001,water,0,water,0,44496
20,270,0.001,water,0,water,0,44496
20,271,0.001,water,0,water,0,44496
20,272,0.001,water,0,water,0,44496
20,273,0.002,water,0,water,0,44496
20,274,0.001,water,0,water,0,44496
20,275,0.001,water,0,water,0,44496
20,276,0.001,water,0,water,0,44496
20,277,0.001,water,0,water,0,44496
20,278,0.001,water,0,water,0,44496
20,279,0.001,water,0,water,0,44496
20,280,0.001,water,0,water,0,44496
20,281,0.001,water,0,water,0,44496
20,282,0.001,water,0,water,0,44496
20,283,0.001,water,0,water,0,44496
20,284,0.001,water,0,water,0,44496
20,285,0.001,water,0,water,0,44496
20,286,0.001,water,0,water,0,44496
20,287,0.001,water,0,water,0,44496
20,288,0.001,water,0,water,0,44496
20,289,0.001,water,0,water,0,44496
20,290,0.001,water,0,water,0,44496
20,291,0.001,water,0,water,0,44496
20,292,0.001,water,0,water,0,44496
20,293,0.001,water,0,water,0,44496
20,294,0.001,water,0,water,0,44496
20,295,0.001,water,0,water,0,44496
20,296,0.001,water,0,water,0,44496
20,297,0.001,water,0,water,0,44496
20,298,0.001,water,0,water,0,44496
20,299,0.001,water,0,water,0,44496
20,300,0.001,water,0,water,0,44496
20,190,1.856,water,0,water,0,44496
20,191,1.953,water,0,water,0,44496
20,192,2.051,water,0,water,0,44496
20,193,2.122,water,0,water,0,44496
20,194,2.114,water,0,water,0,44496
20,195,2.128,water,0,water,0,44496
20,196,2.165,water,0,water,0,44496
20,197,2.137,water,0,water,0,44496
20,198,1.96,water,0,water,0,44496
20,199,1.595,water,0,water,0,44496
20,200,1.214,water,0,water,0,44496
20,201,0.891,water,0,water,0,44496
20,202,0.654,water,0,water,0,44496
20,203,0.481,water,0,water,0,44496
20,204,0.351,water,0,water,0,44496
20,205,0.258,water,0,water,0,44496
20,206,0.194,water,0,water,0,44496
20,207,0.151,water,0,water,0,44496
20,208,0.11,water,0,water,0,44496
20,209,0.082,water,0,water,0,44496
20,210,0.064,water,0,water,0,44496
20,211,0.047,water,0,water,0,44496
20,212,0.038,water,0,water,0,44496
20,213,0.031,water,0,water,0,44496
20,214,0.025,water,0,water,0,44496
20,215,0.021,water,0,water,0,44496
20,216,0.018,water,0,water,0,44496
20,217,0.016,water,0,water,0,44496
20,218,0.015,water,0,water,0,44496
20,219,0.014,water,0,water,0,44496
20,220,0.013,water,0,water,0,44496
20,221,0.012,water,0,water,0,44496
20,222,0.012,water,0,water,0,44496
20,223,0.011,water,0,water,0,44496
20,224,0.011,water,0,water,0,44496
20,225,0.01,water,0,water,0,44496
20,226,0.01,water,0,water,0,44496
20,227,0.01,water,0,water,0,44496
20,228,0.01,water,0,water,0,44496
20,229,0.01,water,0,water,0,44496
20,230,0.01,water,0,water,0,44496
20,231,0.009,water,0,water,0,44496
20,232,0.009,water,0,water,0,44496
20,233,0.009,water,0,water,0,44496
20,234,0.008,water,0,water,0,44496
20,235,0.008,water,0,water,0,44496
20,236,0.008,water,0,water,0,44496
20,237,0.008,water,0,water,0,44496
20,238,0.008,water,0,water,0,44496
20,239,0.007,water,0,water,0,44496
20,240,0.007,water,0,water,0,44496
20,241,0.007,water,0,water,0,44496
20,242,0.007,water,0,water,0,44496
20,243,0.007,water,0,water,0,44496
20,244,0.007,water,0,water,0,44496
20,245,0.006,water,0,water,0,44496
20,246,0.006,water,0,water,0,44496
20,247,0.006,water,0,water,0,44496
20,248,0.006,water,0,water,0,44496
20,249,0.006,water,0,water,0,44496
20,250,0.005,water,0,water,0,44496
20,251,0.005,water,0,water,0,44496
20,252,0.004,water,0,water,0,44496
20,253,0.004,water,0,water,0,44496
20,254,0.004,water,0,water,0,44496
20,255,0.004,water,0,water,0,44496
20,256,0.003,water,0,water,0,44496
20,257,0.003,water,0,water,0,44496
20,258,0.003,water,0,water,0,44496
20,259,0.003,water,0,water,0,44496
20,260,0.003,water,0,water,0,44496
20,261,0.003,water,0,water,0,44496
20,262,0.002,water,0,water,0,44496
20,263,0.002,water,0,water,0,44496
20,264,0.002,water,0,water,0,44496
20,265,0.002,water,0,water,0,44496
20,266,0.002,water,0,water,0,44496
20,267,0.002,water,0,water,0,44496
20,268,0.002,water,0,water,0,44496
20,269,0.002,water,0,water,0,44496
20,270,0.002,water,0,water,0,44496
20,271,0.002,water,0,water,0,44496
20,272,0.002,water,0,water,0,44496
20,273,0.002,water,0,water,0,44496
20,274,0.002,water,0,water,0,44496
20,275,0.001,water,0,water,0,44496
20,276,0.001,water,0,water,0,44496
20,277,0.001,water,0,water,0,44496
20,278,0.001,water,0,water,0,44496
20,279,0.001,water,0,water,0,44496
20,280,0.001,water,0,water,0,44496
20,281,0.001,water,0,water,0,44496
20,282,0.001,water,0,water,0,44496
20,283,0.001,water,0,water,0,44496
20,284,0.001,water,0,water,0,44496
20,285,0.001,water,0,water,0,44496
20,286,0.001,water,0,water,0,44496
20,287,0.001,water,0,water,0,44496
20,288,0.001,water,0,water,0,44496
20,289,0.001,water,0,water,0,44496
20,290,0.001,water,0,water,0,44496
20,291,0.001,water,0,water,0,44496
20,292,0.001,water,0,water,0,44496
20,293,0.001,water,0,water,0,44496
20,294,0.001,water,0,water,0,44496
20,295,0.001,water,0,water,0,44496
20,296,0.001,water,0,water,0,44496
20,297,0.001,water,0,water,0,44496
20,298,0.001,water,0,water,0,44496
20,299,0.001,water,0,water,0,44496
20,300,0.001,water,0,water,0,44496
20,190,1.847,water,0,water,0,44496
20,191,1.947,water,0,water,0,44496
20,192,2.048,water,0,water,0,44496
20,193,2.112,water,0,water,0,44496
20,194,2.115,water,0,water,0,44496
20,195,2.122,water,0,water,0,44496
20,196,2.158,water,0,water,0,44496
20,197,2.129,water,0,water,0,44496
20,198,1.945,water,0,water,0,44496
20,199,1.581,water,0,water,0,44496
20,200,1.182,water,0,water,0,44496
20,201,0.874,water,0,water,0,44496
20,202,0.64,water,0,water,0,44496
20,203,0.469,water,0,water,0,44496
20,204,0.341,water,0,water,0,44496
20,205,0.249,water,0,water,0,44496
20,206,0.187,water,0,water,0,44496
20,207,0.144,water,0,water,0,44496
20,208,0.102,water,0,water,0,44496
20,209,0.075,water,0,water,0,44496
20,210,0.058,water,0,water,0,44496
20,211,0.041,water,0,water,0,44496
20,212,0.032,water,0,water,0,44496
20,213,0.025,water,0,water,0,44496
20,214,0.02,water,0,water,0,44496
20,215,0.016,water,0,water,0,44496
20,216,0.013,water,0,water,0,44496
20,217,0.011,water,0,water,0,44496
20,218,0.01,water,0,water,0,44496
20,219,0.01,water,0,water,0,44496
20,220,0.009,water,0,water,0,44496
20,221,0.008,water,0,water,0,44496
20,222,0.008,water,0,water,0,44496
20,223,0.008,water,0,water,0,44496
20,224,0.007,water,0,water,0,44496
20,225,0.003,water,0,water,0,44496
20,226,0.007,water,0,water,0,44496
20,227,0.007,water,0,water,0,44496
20,228,0.007,water,0,water,0,44496
20,229,0.007,water,0,water,0,44496
20,230,0.007,water,0,water,0,44496
20,231,0.007,water,0,water,0,44496
20,232,0.007,water,0,water,0,44496
20,233,0.007,water,0,water,0,44496
20,234,0.006,water,0,water,0,44496
20,235,0.007,water,0,water,0,44496
20,236,0.006,water,0,water,0,44496
20,237,0.006,water,0,water,0,44496
20,238,0.006,water,0,water,0,44496
20,239,0.006,water,0,water,0,44496
20,240,0.006,water,0,water,0,44496
20,241,0.006,water,0,water,0,44496
20,242,0.006,water,0,water,0,44496
20,243,0.006,water,0,water,0,44496
20,244,0.006,water,0,water,0,44496
20,245,0.006,water,0,water,0,44496
20,246,0.005,water,0,water,0,44496
20,247,0.005,water,0,water,0,44496
20,248,0.005,water,0,water,0,44496
20,249,0.005,water,0,water,0,44496
20,250,0.005,water,0,water,0,44496
20,251,0.004,water,0,water,0,44496
20,252,0.004,water,0,water,0,44496
20,253,0.003,water,0,water,0,44496
20,254,0.004,water,0,water,0,44496
20,255,0.003,water,0,water,0,44496
20,256,0.003,water,0,water,0,44496
20,257,0.003,water,0,water,0,44496
20,258,0.003,water,0,water,0,44496
20,259,0.003,water,0,water,0,44496
20,260,0.003,water,0,water,0,44496
20,261,0.003,water,0,water,0,44496
20,262,0.002,water,0,water,0,44496
20,263,0.002,water,0,water,0,44496
20,264,0.002,water,0,water,0,44496
20,265,0.002,water,0,water,0,44496
20,266,0.002,water,0,water,0,44496
20,267,0.002,water,0,water,0,44496
20,268,0.002,water,0,water,0,44496
20,269,0.002,water,0,water,0,44496
20,270,0.002,water,0,water,0,44496
20,271,0.001,water,0,water,0,44496
20,272,0.002,water,0,water,0,44496
20,273,0.002,water,0,water,0,44496
20,274,0.002,water,0,water,0,44496
20,275,0.002,water,0,water,0,44496
20,276,0.001,water,0,water,0,44496
20,277,0.001,water,0,water,0,44496
20,278,0.001,water,0,water,0,44496
20,279,0.001,water,0,water,0,44496
20,280,0.001,water,0,water,0,44496
20,281,0.001,water,0,water,0,44496
20,282,0.001,water,0,water,0,44496
20,283,0.002,water,0,water,0,44496
20,284,0.001,water,0,water,0,44496
20,285,0.001,water,0,water,0,44496
20,286,0.001,water,0,water,0,44496
20,287,0.001,water,0,water,0,44496
20,288,0.001,water,0,water,0,44496
20,289,0.001,water,0,water,0,44496
20,290,0.001,water,0,water,0,44496
20,291,0.001,water,0,water,0,44496
20,292,0.001,water,0,water,0,44496
20,293,0.001,water,0,water,0,44496
20,294,0.001,water,0,water,0,44496
20,295,0.001,water,0,water,0,44496
20,296,0.001,water,0,water,0,44496
20,297,0.001,water,0,water,0,44496
20,298,0.001,water,0,water,0,44496
20,299,0.001,water,0,water,0,44496
20,300,0.001,water,0,water,0,44496
30,190,1.874,water,0,water,0,44496
30,191,1.972,water,0,water,0,44496
30,192,2.078,water,0,water,0,44496
30,193,2.142,water,0,water,0,44496
30,194,2.144,water,0,water,0,44496
30,195,2.165,water,0,water,0,44496
30,196,2.204,water,0,water,0,44496
30,197,2.214,water,0,water,0,44496
30,198,2.172,water,0,water,0,44496
30,199,1.96,water,0,water,0,44496
30,200,1.625,water,0,water,0,44496
30,201,1.242,water,0,water,0,44496
30,202,0.929,water,0,water,0,44496
30,203,0.683,water,0,water,0,44496
30,204,0.504,water,0,water,0,44496
30,205,0.368,water,0,water,0,44496
30,206,0.276,water,0,water,0,44496
30,207,0.212,water,0,water,0,44496
30,208,0.151,water,0,water,0,44496
30,209,0.112,water,0,water,0,44496
30,210,0.085,water,0,water,0,44496
30,211,0.062,water,0,water,0,44496
30,212,0.048,water,0,water,0,44496
30,213,0.038,water,0,water,0,44496
30,214,0.03,water,0,water,0,44496
30,215,0.025,water,0,water,0,44496
30,216,0.021,water,0,water,0,44496
30,217,0.018,water,0,water,0,44496
30,218,0.016,water,0,water,0,44496
30,219,0.015,water,0,water,0,44496
30,220,0.014,water,0,water,0,44496
30,221,0.013,water,0,water,0,44496
30,222,0.012,water,0,water,0,44496
30,223,0.012,water,0,water,0,44496
30,224,0.011,water,0,water,0,44496
30,225,0.009,water,0,water,0,44496
30,226,0.011,water,0,water,0,44496
30,227,0.011,water,0,water,0,44496
30,228,0.01,water,0,water,0,44496
30,229,0.01,water,0,water,0,44496
30,230,0.01,water,0,water,0,44496
30,231,0.01,water,0,water,0,44496
30,232,0.009,water,0,water,0,44496
30,233,0.009,water,0,water,0,44496
30,234,0.008,water,0,water,0,44496
30,235,0.008,water,0,water,0,44496
30,236,0.008,water,0,water,0,44496
30,237,0.008,water,0,water,0,44496
30,238,0.008,water,0,water,0,44496
30,239,0.008,water,0,water,0,44496
30,240,0.007,water,0,water,0,44496
30,241,0.008,water,0,water,0,44496
30,242,0.007,water,0,water,0,44496
30,243,0.007,water,0,water,0,44496
30,244,0.007,water,0,water,0,44496
30,245,0.008,water,0,water,0,44496
30,246,0.007,water,0,water,0,44496
30,247,0.007,water,0,water,0,44496
30,248,0.007,water,0,water,0,44496
30,249,0.007,water,0,water,0,44496
30,250,0.007,water,0,water,0,44496
30,251,0.007,water,0,water,0,44496
30,252,0.006,water,0,water,0,44496
30,253,0.006,water,0,water,0,44496
30,254,0.006,water,0,water,0,44496
30,255,0.006,water,0,water,0,44496
30,256,0.006,water,0,water,0,44496
30,257,0.006,water,0,water,0,44496
30,258,0.005,water,0,water,0,44496
30,259,0.005,water,0,water,0,44496
30,260,0.005,water,0,water,0,44496
30,261,0.005,water,0,water,0,44496
30,262,0.005,water,0,water,0,44496
30,263,0.004,water,0,water,0,44496
30,264,0.004,water,0,water,0,44496
30,265,0.004,water,0,water,0,44496
30,266,0.004,water,0,water,0,44496
30,267,0.003,water,0,water,0,44496
30,268,0.003,water,0,water,0,44496
30,269,0.003,water,0,water,0,44496
30,270,0.003,water,0,water,0,44496
30,271,0.003,water,0,water,0,44496
30,272,0.003,water,0,water,0,44496
30,273,0.003,water,0,water,0,44496
30,274,0.002,water,0,water,0,44496
30,275,0.002,water,0,water,0,44496
30,276,0.002,water,0,water,0,44496
30,277,0.002,water,0,water,0,44496
30,278,0.002,water,0,water,0,44496
30,279,0.002,water,0,water,0,44496
30,280,0.001,water,0,water,0,44496
30,281,0.002,water,0,water,0,44496
30,282,0.001,water,0,water,0,44496
30,283,0.002,water,0,water,0,44496
30,284,0.001,water,0,water,0,44496
30,285,0.001,water,0,water,0,44496
30,286,0.001,water,0,water,0,44496
30,287,0.001,water,0,water,0,44496
30,288,0.001,water,0,water,0,44496
30,289,0.001,water,0,water,0,44496
30,290,0.001,water,0,water,0,44496
30,291,0.001,water,0,water,0,44496
30,292,0.001,water,0,water,0,44496
30,293,0.001,water,0,water,0,44496
30,294,0.001,water,0,water,0,44496
30,295,0.001,water,0,water,0,44496
30,296,0.001,water,0,water,0,44496
30,297,0.001,water,0,water,0,44496
30,298,0.001,water,0,water,0,44496
30,299,0.001,water,0,water,0,44496
30,300,0.001,water,0,water,0,44496
30,190,1.863,water,0,water,0,44496
30,191,1.967,water,0,water,0,44496
30,192,2.072,water,0,water,0,44496
30,193,2.141,water,0,water,0,44496
30,194,2.15,water,0,water,0,44496
30,195,2.157,water,0,water,0,44496
30,196,2.196,water,0,water,0,44496
30,197,2.221,water,0,water,0,44496
30,198,2.173,water,0,water,0,44496
30,199,1.954,water,0,water,0,44496
30,200,1.591,water,0,water,0,44496
30,201,1.234,water,0,water,0,44496
30,202,0.923,water,0,water,0,44496
30,203,0.68,water,0,water,0,44496
30,204,0.5,water,0,water,0,44496
30,205,0.361,water,0,water,0,44496
30,206,0.269,water,0,water,0,44496
30,207,0.206,water,0,water,0,44496
30,208,0.146,water,0,water,0,44496
30,209,0.107,water,0,water,0,44496
30,210,0.08,water,0,water,0,44496
30,211,0.057,water,0,water,0,44496
30,212,0.044,water,0,water,0,44496
30,213,0.034,water,0,water,0,44496
30,214,0.026,water,0,water,0,44496
30,215,0.021,water,0,water,0,44496
30,216,0.017,water,0,water,0,44496
30,217,0.014,water,0,water,0,44496
30,218,0.013,water,0,water,0,44496
30,219,0.012,water,0,water,0,44496
30,220,0.011,water,0,water,0,44496
30,221,0.01,water,0,water,0,44496
30,222,0.009,water,0,water,0,44496
30,223,0.009,water,0,water,0,44496
30,224,0.008,water,0,water,0,44496
30,225,0.007,water,0,water,0,44496
30,226,0.009,water,0,water,0,44496
30,227,0.008,water,0,water,0,44496
30,228,0.008,water,0,water,0,44496
30,229,0.008,water,0,water,0,44496
30,230,0.008,water,0,water,0,44496
30,231,0.008,water,0,water,0,44496
30,232,0.007,water,0,water,0,44496
30,233,0.007,water,0,water,0,44496
30,234,0.007,water,0,water,0,44496
30,235,0.007,water,0,water,0,44496
30,236,0.007,water,0,water,0,44496
30,237,0.007,water,0,water,0,44496
30,238,0.006,water,0,water,0,44496
30,239,0.006,water,0,water,0,44496
30,240,0.007,water,0,water,0,44496
30,241,0.007,water,0,water,0,44496
30,242,0.006,water,0,water,0,44496
30,243,0.006,water,0,water,0,44496
30,244,0.007,water,0,water,0,44496
30,245,0.007,water,0,water,0,44496
30,246,0.006,water,0,water,0,44496
30,247,0.006,water,0,water,0,44496
30,248,0.006,water,0,water,0,44496
30,249,0.006,water,0,water,0,44496
30,250,0.006,water,0,water,0,44496
30,251,0.006,water,0,water,0,44496
30,252,0.006,water,0,water,0,44496
30,253,0.006,water,0,water,0,44496
30,254,0.006,water,0,water,0,44496
30,255,0.005,water,0,water,0,44496
30,256,0.006,water,0,water,0,44496
30,257,0.005,water,0,water,0,44496
30,258,0.005,water,0,water,0,44496
30,259,0.005,water,0,water,0,44496
30,260,0.005,water,0,water,0,44496
30,261,0.005,water,0,water,0,44496
30,262,0.004,water,0,water,0,44496
30,263,0.004,water,0,water,0,44496
30,264,0.004,water,0,water,0,44496
30,265,0.004,water,0,water,0,44496
30,266,0.003,water,0,water,0,44496
30,267,0.003,water,0,water,0,44496
30,268,0.003,water,0,water,0,44496
30,269,0.003,water,0,water,0,44496
30,270,0.003,water,0,water,0,44496
30,271,0.002,water,0,water,0,44496
30,272,0.002,water,0,water,0,44496
30,273,0.002,water,0,water,0,44496
30,274,0.002,water,0,water,0,44496
30,275,0.002,water,0,water,0,44496
30,276,0.002,water,0,water,0,44496
30,277,0.002,water,0,water,0,44496
30,278,0.002,water,0,water,0,44496
30,279,0.001,water,0,water,0,44496
30,280,0.001,water,0,water,0,44496
30,281,0.001,water,0,water,0,44496
30,282,0.001,water,0,water,0,44496
30,283,0.001,water,0,water,0,44496
30,284,0.001,water,0,water,0,44496
30,285,0.001,water,0,water,0,44496
30,286,0.001,water,0,water,0,44496
30,287,0.001,water,0,water,0,44496
30,288,0.001,water,0,water,0,44496
30,289,0.001,water,0,water,0,44496
30,290,0.001,water,0,water,0,44496
30,291,0.001,water,0,water,0,44496
30,292,0.001,water,0,water,0,44496
30,293,0.001,water,0,water,0,44496
30,294,0.001,water,0,water,0,44496
30,295,0.001,water,0,water,0,44496
30,296,0.001,water,0,water,0,44496
30,297,0.001,water,0,water,0,44496
30,298,0.001,water,0,water,0,44496
30,299,0.001,water,0,water,0,44496
30,300,0.001,water,0,water,0,44496
30,190,1.862,water,0,water,0,44496
30,191,1.964,water,0,water,0,44496
30,192,2.057,water,0,water,0,44496
30,193,2.128,water,0,water,0,44496
30,194,2.13,water,0,water,0,44496
30,195,2.147,water,0,water,0,44496
30,196,2.189,water,0,water,0,44496
30,197,2.212,water,0,water,0,44496
30,198,2.162,water,0,water,0,44496
30,199,1.942,water,0,water,0,44496
30,200,1.583,water,0,water,0,44496
30,201,1.214,water,0,water,0,44496
30,202,0.905,water,0,water,0,44496
30,203,0.668,water,0,water,0,44496
30,204,0.488,water,0,water,0,44496
30,205,0.352,water,0,water,0,44496
30,206,0.262,water,0,water,0,44496
30,207,0.199,water,0,water,0,44496
30,208,0.142,water,0,water,0,44496
30,209,0.103,water,0,water,0,44496
30,210,0.077,water,0,water,0,44496
30,211,0.054,water,0,water,0,44496
30,212,0.04,water,0,water,0,44496
30,213,0.031,water,0,water,0,44496
30,214,0.024,water,0,water,0,44496
30,215,0.019,water,0,water,0,44496
30,216,0.015,water,0,water,0,44496
30,217,0.012,water,0,water,0,44496
30,218,0.01,water,0,water,0,44496
30,219,0.009,water,0,water,0,44496
30,220,0.008,water,0,water,0,44496
30,221,0.008,water,0,water,0,44496
30,222,0.007,water,0,water,0,44496
30,223,0.007,water,0,water,0,44496
30,224,0.007,water,0,water,0,44496
30,225,0.002,water,0,water,0,44496
30,226,0.007,water,0,water,0,44496
30,227,0.007,water,0,water,0,44496
30,228,0.006,water,0,water,0,44496
30,229,0.006,water,0,water,0,44496
30,230,0.006,water,0,water,0,44496
30,231,0.006,water,0,water,0,44496
30,232,0.006,water,0,water,0,44496
30,233,0.006,water,0,water,0,44496
30,234,0.005,water,0,water,0,44496
30,235,0.006,water,0,water,0,44496
30,236,0.005,water,0,water,0,44496
30,237,0.005,water,0,water,0,44496
30,238,0.005,water,0,water,0,44496
30,239,0.005,water,0,water,0,44496
30,240,0.006,water,0,water,0,44496
30,241,0.006,water,0,water,0,44496
30,242,0.005,water,0,water,0,44496
30,243,0.005,water,0,water,0,44496
30,244,0.005,water,0,water,0,44496
30,245,0.006,water,0,water,0,44496
30,246,0.005,water,0,water,0,44496
30,247,0.005,water,0,water,0,44496
30,248,0.005,water,0,water,0,44496
30,249,0.005,water,0,water,0,44496
30,250,0.005,water,0,water,0,44496
30,251,0.005,water,0,water,0,44496
30,252,0.005,water,0,water,0,44496
30,253,0.005,water,0,water,0,44496
30,254,0.005,water,0,water,0,44496
30,255,0.005,water,0,water,0,44496
30,256,0.005,water,0,water,0,44496
30,257,0.005,water,0,water,0,44496
30,258,0.004,water,0,water,0,44496
30,259,0.005,water,0,water,0,44496
30,260,0.004,water,0,water,0,44496
30,261,0.004,water,0,water,0,44496
30,262,0.004,water,0,water,0,44496
30,263,0.004,water,0,water,0,44496
30,264,0.003,water,0,water,0,44496
30,265,0.003,water,0,water,0,44496
30,266,0.003,water,0,water,0,44496
30,267,0.003,water,0,water,0,44496
30,268,0.003,water,0,water,0,44496
30,269,0.003,water,0,water,0,44496
30,270,0.002,water,0,water,0,44496
30,271,0.002,water,0,water,0,44496
30,272,0.002,water,0,water,0,44496
30,273,0.002,water,0,water,0,44496
30,274,0.002,water,0,water,0,44496
30,275,0.002,water,0,water,0,44496
30,276,0.001,water,0,water,0,44496
30,277,0.001,water,0,water,0,44496
30,278,0.001,water,0,water,0,44496
30,279,0.001,water,0,water,0,44496
30,280,0.001,water,0,water,0,44496
30,281,0.001,water,0,water,0,44496
30,282,0.001,water,0,water,0,44496
30,283,0.001,water,0,water,0,44496
30,284,0.001,water,0,water,0,44496
30,285,0.001,water,0,water,0,44496
30,286,0.001,water,0,water,0,44496
30,287,0.001,water,0,water,0,44496
30,288,0.001,water,0,water,0,44496
30,289,0.001,water,0,water,0,44496
30,290,0.001,water,0,water,0,44496
30,291,0.001,water,0,water,0,44496
30,292,0.001,water,0,water,0,44496
30,293,0.001,water,0,water,0,44496
30,294,0.001,water,0,water,0,44496
30,295,0.001,water,0,water,0,44496
30,296,0.001,water,0,water,0,44496
30,297,0.001,water,0,water,0,44496
30,298,0.001,water,0,water,0,44496
30,299,0.001,water,0,water,0,44496
30,300,0.001,water,0,water,0,44496
40,190,1.882,water,0,water,0,44496
40,191,1.975,water,0,water,0,44496
40,192,2.077,water,0,water,0,44496
40,193,2.146,water,0,water,0,44496
40,194,2.143,water,0,water,0,44496
40,195,2.164,water,0,water,0,44496
40,196,2.203,water,0,water,0,44496
40,197,2.234,water,0,water,0,44496
40,198,2.215,water,0,water,0,44496
40,199,2.105,water,0,water,0,44496
40,200,1.876,water,0,water,0,44496
40,201,1.539,water,0,water,0,44496
40,202,1.173,water,0,water,0,44496
40,203,0.871,water,0,water,0,44496
40,204,0.643,water,0,water,0,44496
40,205,0.465,water,0,water,0,44496
40,206,0.344,water,0,water,0,44496
40,207,0.263,water,0,water,0,44496
40,208,0.184,water,0,water,0,44496
40,209,0.133,water,0,water,0,44496
40,210,0.098,water,0,water,0,44496
40,211,0.067,water,0,water,0,44496
40,212,0.05,water,0,water,0,44496
40,213,0.037,water,0,water,0,44496
40,214,0.027,water,0,water,0,44496
40,215,0.02,water,0,water,0,44496
40,216,0.015,water,0,water,0,44496
40,217,0.012,water,0,water,0,44496
40,218,0.009,water,0,water,0,44496
40,219,0.008,water,0,water,0,44496
40,220,0.007,water,0,water,0,44496
40,221,0.006,water,0,water,0,44496
40,222,0.005,water,0,water,0,44496
40,223,0.005,water,0,water,0,44496
40,224,0.005,water,0,water,0,44496
40,225,-0.001,water,0,water,0,44496
40,226,0.005,water,0,water,0,44496
40,227,0.004,water,0,water,0,44496
40,228,0.004,water,0,water,0,44496
40,229,0.004,water,0,water,0,44496
40,230,0.004,water,0,water,0,44496
40,231,0.004,water,0,water,0,44496
40,232,0.004,water,0,water,0,44496
40,233,0.004,water,0,water,0,44496
40,234,0.003,water,0,water,0,44496
40,235,0.003,water,0,water,0,44496
40,236,0.003,water,0,water,0,44496
40,237,0.003,water,0,water,0,44496
40,238,0.003,water,0,water,0,44496
40,239,0.003,water,0,water,0,44496
40,240,0.003,water,0,water,0,44496
40,241,0.003,water,0,water,0,44496
40,242,0.003,water,0,water,0,44496
40,243,0.003,water,0,water,0,44496
40,244,0.003,water,0,water,0,44496
40,245,0.002,water,0,water,0,44496
40,246,0.002,water,0,water,0,44496
40,247,0.002,water,0,water,0,44496
40,248,0.002,water,0,water,0,44496
40,249,0.002,water,0,water,0,44496
40,250,0.002,water,0,water,0,44496
40,251,0.002,water,0,water,0,44496
40,252,0.001,water,0,water,0,44496
40,253,0.001,water,0,water,0,44496
40,254,0.001,water,0,water,0,44496
40,255,0.001,water,0,water,0,44496
40,256,0.001,water,0,water,0,44496
40,257,0.001,water,0,water,0,44496
40,258,-0.001,water,0,water,0,44496
40,259,0.001,water,0,water,0,44496
40,260,0,water,0,water,0,44496
40,261,0,water,0,water,0,44496
40,262,0,water,0,water,0,44496
40,263,0,water,0,water,0,44496
40,264,0,water,0,water,0,44496
40,265,0,water,0,water,0,44496
40,266,0,water,0,water,0,44496
40,267,0,water,0,water,0,44496
40,268,0,water,0,water,0,44496
40,269,0,water,0,water,0,44496
40,270,0,water,0,water,0,44496
40,271,0,water,0,water,0,44496
40,272,0,water,0,water,0,44496
40,273,0,water,0,water,0,44496
40,274,0,water,0,water,0,44496
40,275,0,water,0,water,0,44496
40,276,0,water,0,water,0,44496
40,277,0,water,0,water,0,44496
40,278,0,water,0,water,0,44496
40,279,0,water,0,water,0,44496
40,280,0,water,0,water,0,44496
40,281,0,water,0,water,0,44496
40,282,0,water,0,water,0,44496
40,283,0,water,0,water,0,44496
40,284,0,water,0,water,0,44496
40,285,0,water,0,water,0,44496
40,286,0,water,0,water,0,44496
40,287,0,water,0,water,0,44496
40,288,0,water,0,water,0,44496
40,289,0,water,0,water,0,44496
40,290,0,water,0,water,0,44496
40,291,0,water,0,water,0,44496
40,292,0,water,0,water,0,44496
40,293,0,water,0,water,0,44496
40,294,0,water,0,water,0,44496
40,295,0,water,0,water,0,44496
40,296,-0.001,water,0,water,0,44496
40,297,0,water,0,water,0,44496
40,298,0,water,0,water,0,44496
40,299,0,water,0,water,0,44496
40,300,0,water,0,water,0,44496
40,190,1.863,water,0,water,0,44496
40,191,1.972,water,0,water,0,44496
40,192,2.071,water,0,water,0,44496
40,193,2.15,water,0,water,0,44496
40,194,2.149,water,0,water,0,44496
40,195,2.157,water,0,water,0,44496
40,196,2.202,water,0,water,0,44496
40,197,2.228,water,0,water,0,44496
40,198,2.213,water,0,water,0,44496
40,199,2.105,water,0,water,0,44496
40,200,1.888,water,0,water,0,44496
40,201,1.541,water,0,water,0,44496
40,202,1.179,water,0,water,0,44496
40,203,0.879,water,0,water,0,44496
40,204,0.652,water,0,water,0,44496
40,205,0.468,water,0,water,0,44496
40,206,0.349,water,0,water,0,44496
40,207,0.265,water,0,water,0,44496
40,208,0.187,water,0,water,0,44496
40,209,0.136,water,0,water,0,44496
40,210,0.1,water,0,water,0,44496
40,211,0.07,water,0,water,0,44496
40,212,0.052,water,0,water,0,44496
40,213,0.039,water,0,water,0,44496
40,214,0.029,water,0,water,0,44496
40,215,0.022,water,0,water,0,44496
40,216,0.017,water,0,water,0,44496
40,217,0.014,water,0,water,0,44496
40,218,0.011,water,0,water,0,44496
40,219,0.01,water,0,water,0,44496
40,220,0.009,water,0,water,0,44496
40,221,0.008,water,0,water,0,44496
40,222,0.007,water,0,water,0,44496
40,223,0.007,water,0,water,0,44496
40,224,0.006,water,0,water,0,44496
40,225,0.005,water,0,water,0,44496
40,226,0.006,water,0,water,0,44496
40,227,0.006,water,0,water,0,44496
40,228,0.006,water,0,water,0,44496
40,229,0.005,water,0,water,0,44496
40,230,0.005,water,0,water,0,44496
40,231,0.005,water,0,water,0,44496
40,232,0.005,water,0,water,0,44496
40,233,0.005,water,0,water,0,44496
40,234,0.005,water,0,water,0,44496
40,235,0.005,water,0,water,0,44496
40,236,0.005,water,0,water,0,44496
40,237,0.005,water,0,water,0,44496
40,238,0.004,water,0,water,0,44496
40,239,0.004,water,0,water,0,44496
40,240,0.003,water,0,water,0,44496
40,241,0.004,water,0,water,0,44496
40,242,0.004,water,0,water,0,44496
40,243,0.004,water,0,water,0,44496
40,244,0.004,water,0,water,0,44496
40,245,0.003,water,0,water,0,44496
40,246,0.003,water,0,water,0,44496
40,247,0.003,water,0,water,0,44496
40,248,0.003,water,0,water,0,44496
40,249,0.003,water,0,water,0,44496
40,250,0.003,water,0,water,0,44496
40,251,0.002,water,0,water,0,44496
40,252,0.002,water,0,water,0,44496
40,253,0.001,water,0,water,0,44496
40,254,0.002,water,0,water,0,44496
40,255,0.001,water,0,water,0,44496
40,256,0.001,water,0,water,0,44496
40,257,0.001,water,0,water,0,44496
40,258,0.001,water,0,water,0,44496
40,259,0,water,0,water,0,44496
40,260,0.001,water,0,water,0,44496
40,261,0.001,water,0,water,0,44496
40,262,0.001,water,0,water,0,44496
40,263,0.001,water,0,water,0,44496
40,264,0.001,water,0,water,0,44496
40,265,0,water,0,water,0,44496
40,266,0,water,0,water,0,44496
40,267,0,water,0,water,0,44496
40,268,0,water,0,water,0,44496
40,269,0,water,0,water,0,44496
40,270,0,water,0,water,0,44496
40,271,0,water,0,water,0,44496
40,272,0,water,0,water,0,44496
40,273,0,water,0,water,0,44496
40,274,0,water,0,water,0,44496
40,275,0,water,0,water,0,44496
40,276,0,water,0,water,0,44496
40,277,0,water,0,water,0,44496
40,278,0,water,0,water,0,44496
40,279,0,water,0,water,0,44496
40,280,0,water,0,water,0,44496
40,281,0,water,0,water,0,44496
40,282,0,water,0,water,0,44496
40,283,0,water,0,water,0,44496
40,284,0,water,0,water,0,44496
40,285,0,water,0,water,0,44496
40,286,0,water,0,water,0,44496
40,287,0,water,0,water,0,44496
40,288,0,water,0,water,0,44496
40,289,0,water,0,water,0,44496
40,290,0,water,0,water,0,44496
40,291,0,water,0,water,0,44496
40,292,0,water,0,water,0,44496
40,293,0,water,0,water,0,44496
40,294,0,water,0,water,0,44496
40,295,0,water,0,water,0,44496
40,296,0,water,0,water,0,44496
40,297,0,water,0,water,0,44496
40,298,0,water,0,water,0,44496
40,299,0,water,0,water,0,44496
40,300,0,water,0,water,0,44496
40,190,1.878,water,0,water,0,44496
40,191,1.986,water,0,water,0,44496
40,192,2.087,water,0,water,0,44496
40,193,2.16,water,0,water,0,44496
40,194,2.158,water,0,water,0,44496
40,195,2.18,water,0,water,0,44496
40,196,2.225,water,0,water,0,44496
40,197,2.252,water,0,water,0,44496
40,198,2.231,water,0,water,0,44496
40,199,2.111,water,0,water,0,44496
40,200,1.889,water,0,water,0,44496
40,201,1.549,water,0,water,0,44496
40,202,1.186,water,0,water,0,44496
40,203,0.883,water,0,water,0,44496
40,204,0.648,water,0,water,0,44496
40,205,0.472,water,0,water,0,44496
40,206,0.352,water,0,water,0,44496
40,207,0.271,water,0,water,0,44496
40,208,0.192,water,0,water,0,44496
40,209,0.14,water,0,water,0,44496
40,210,0.105,water,0,water,0,44496
40,211,0.075,water,0,water,0,44496
40,212,0.056,water,0,water,0,44496
40,213,0.044,water,0,water,0,44496
40,214,0.034,water,0,water,0,44496
40,215,0.027,water,0,water,0,44496
40,216,0.022,water,0,water,0,44496
40,217,0.018,water,0,water,0,44496
40,218,0.016,water,0,water,0,44496
40,219,0.014,water,0,water,0,44496
40,220,0.013,water,0,water,0,44496
40,221,0.012,water,0,water,0,44496
40,222,0.011,water,0,water,0,44496
40,223,0.011,water,0,water,0,44496
40,224,0.01,water,0,water,0,44496
40,225,0.008,water,0,water,0,44496
40,226,0.009,water,0,water,0,44496
40,227,0.009,water,0,water,0,44496
40,228,0.009,water,0,water,0,44496
40,229,0.009,water,0,water,0,44496
40,230,0.008,water,0,water,0,44496
40,231,0.008,water,0,water,0,44496
40,232,0.008,water,0,water,0,44496
40,233,0.007,water,0,water,0,44496
40,234,0.007,water,0,water,0,44496
40,235,0.007,water,0,water,0,44496
40,236,0.007,water,0,water,0,44496
40,237,0.007,water,0,water,0,44496
40,238,0.006,water,0,water,0,44496
40,239,0.006,water,0,water,0,44496
40,240,0.006,water,0,water,0,44496
40,241,0.006,water,0,water,0,44496
40,242,0.006,water,0,water,0,44496
40,243,0.005,water,0,water,0,44496
40,244,0.005,water,0,water,0,44496
40,245,0.005,water,0,water,0,44496
40,246,0.005,water,0,water,0,44496
40,247,0.004,water,0,water,0,44496
40,248,0.004,water,0,water,0,44496
40,249,0.004,water,0,water,0,44496
40,250,0.004,water,0,water,0,44496
40,251,0.003,water,0,water,0,44496
40,252,0.003,water,0,water,0,44496
40,253,0.002,water,0,water,0,44496
40,254,0.003,water,0,water,0,44496
40,255,0.002,water,0,water,0,44496
40,256,0.002,water,0,water,0,44496
40,257,0.002,water,0,water,0,44496
40,258,0.002,water,0,water,0,44496
40,259,0.002,water,0,water,0,44496
40,260,0.002,water,0,water,0,44496
40,261,0.002,water,0,water,0,44496
40,262,0.001,water,0,water,0,44496
40,263,0.001,water,0,water,0,44496
40,264,0.001,water,0,water,0,44496
40,265,0.001,water,0,water,0,44496
40,266,0.001,water,0,water,0,44496
40,267,0.001,water,0,water,0,44496
40,268,0.001,water,0,water,0,44496
40,269,0.001,water,0,water,0,44496
40,270,0.001,water,0,water,0,44496
40,271,0.001,water,0,water,0,44496
40,272,0.001,water,0,water,0,44496
40,273,0.001,water,0,water,0,44496
40,274,0.001,water,0,water,0,44496
40,275,0.001,water,0,water,0,44496
40,276,0.001,water,0,water,0,44496
40,277,0.001,water,0,water,0,44496
40,278,0.001,water,0,water,0,44496
40,279,0.001,water,0,water,0,44496
40,280,0.001,water,0,water,0,44496
40,281,0.001,water,0,water,0,44496
40,282,0.001,water,0,water,0,44496
40,283,0.001,water,0,water,0,44496
40,284,0.001,water,0,water,0,44496
40,285,0.001,water,0,water,0,44496
40,286,0.001,water,0,water,0,44496
40,287,0.001,water,0,water,0,44496
40,288,0.001,water,0,water,0,44496
40,289,0.001,water,0,water,0,44496
40,290,0,water,0,water,0,44496
40,291,0.001,water,0,water,0,44496
40,292,0.001,water,0,water,0,44496
40,293,0,water,0,water,0,44496
40,294,0,water,0,water,0,44496
40,295,0.001,water,0,water,0,44496
40,296,0,water,0,water,0,44496
40,297,0,water,0,water,0,44496
40,298,0,water,0,water,0,44496
40,299,0,water,0,water,0,44496
40,300,0,water,0,water,0,44496
100,190,1.903,water,0,water,0,44496
100,191,1.999,water,0,water,0,44496
100,192,2.101,water,0,water,0,44496
100,193,2.175,water,0,water,0,44496
100,194,2.18,water,0,water,0,44496
100,195,2.201,water,0,water,0,44496
100,196,2.257,water,0,water,0,44496
100,197,2.286,water,0,water,0,44496
100,198,2.278,water,0,water,0,44496
100,199,2.218,water,0,water,0,44496
100,200,2.173,water,0,water,0,44496
100,201,2.18,water,0,water,0,44496
100,202,2.098,water,0,water,0,44496
100,203,1.81,water,0,water,0,44496
100,204,1.435,water,0,water,0,44496
100,205,1.069,water,0,water,0,44496
100,206,0.815,water,0,water,0,44496
100,207,0.621,water,0,water,0,44496
100,208,0.44,water,0,water,0,44496
100,209,0.315,water,0,water,0,44496
100,210,0.231,water,0,water,0,44496
100,211,0.161,water,0,water,0,44496
100,212,0.118,water,0,water,0,44496
100,213,0.087,water,0,water,0,44496
100,214,0.063,water,0,water,0,44496
100,215,0.046,water,0,water,0,44496
100,216,0.035,water,0,water,0,44496
100,217,0.027,water,0,water,0,44496
100,218,0.021,water,0,water,0,44496
100,219,0.018,water,0,water,0,44496
100,220,0.015,water,0,water,0,44496
100,221,0.013,water,0,water,0,44496
100,222,0.011,water,0,water,0,44496
100,223,0.01,water,0,water,0,44496
100,224,0.009,water,0,water,0,44496
100,225,0.007,water,0,water,0,44496
100,226,0.008,water,0,water,0,44496
100,227,0.008,water,0,water,0,44496
100,228,0.008,water,0,water,0,44496
100,229,0.008,water,0,water,0,44496
100,230,0.007,water,0,water,0,44496
100,231,0.007,water,0,water,0,44496
100,232,0.007,water,0,water,0,44496
100,233,0.006,water,0,water,0,44496
100,234,0.006,water,0,water,0,44496
100,235,0.006,water,0,water,0,44496
100,236,0.006,water,0,water,0,44496
100,237,0.006,water,0,water,0,44496
100,238,0.005,water,0,water,0,44496
100,239,0.005,water,0,water,0,44496
100,240,0.005,water,0,water,0,44496
100,241,0.005,water,0,water,0,44496
100,242,0.005,water,0,water,0,44496
100,243,0.005,water,0,water,0,44496
100,244,0.005,water,0,water,0,44496
100,245,0.005,water,0,water,0,44496
100,246,0.005,water,0,water,0,44496
100,247,0.005,water,0,water,0,44496
100,248,0.005,water,0,water,0,44496
100,249,0.005,water,0,water,0,44496
100,250,0.004,water,0,water,0,44496
100,251,0.004,water,0,water,0,44496
100,252,0.004,water,0,water,0,44496
100,253,0.003,water,0,water,0,44496
100,254,0.004,water,0,water,0,44496
100,255,0.004,water,0,water,0,44496
100,256,0.004,water,0,water,0,44496
100,257,0.003,water,0,water,0,44496
100,258,0.003,water,0,water,0,44496
100,259,0.002,water,0,water,0,44496
100,260,0.003,water,0,water,0,44496
100,261,0.003,water,0,water,0,44496
100,262,0.003,water,0,water,0,44496
100,263,0.003,water,0,water,0,44496
100,264,0.002,water,0,water,0,44496
100,265,0.002,water,0,water,0,44496
100,266,0.002,water,0,water,0,44496
100,267,0.002,water,0,water,0,44496
100,268,0.002,water,0,water,0,44496
100,269,0.002,water,0,water,0,44496
100,270,0.002,water,0,water,0,44496
100,271,0.001,water,0,water,0,44496
100,272,0.002,water,0,water,0,44496
100,273,0.002,water,0,water,0,44496
100,274,0.001,water,0,water,0,44496
100,275,0.001,water,0,water,0,44496
100,276,0.001,water,0,water,0,44496
100,277,0.001,water,0,water,0,44496
100,278,0.001,water,0,water,0,44496
100,279,0.001,water,0,water,0,44496
100,280,0.001,water,0,water,0,44496
100,281,0.001,water,0,water,0,44496
100,282,0.001,water,0,water,0,44496
100,283,0.001,water,0,water,0,44496
100,284,0.001,water,0,water,0,44496
100,285,0.001,water,0,water,0,44496
100,286,0.001,water,0,water,0,44496
100,287,0.001,water,0,water,0,44496
100,288,0.001,water,0,water,0,44496
100,289,0.001,water,0,water,0,44496
100,290,0.001,water,0,water,0,44496
100,291,0.001,water,0,water,0,44496
100,292,0.001,water,0,water,0,44496
100,293,0,water,0,water,0,44496
100,294,0,water,0,water,0,44496
100,295,0,water,0,water,0,44496
100,296,0,water,0,water,0,44496
100,297,0,water,0,water,0,44496
100,298,0,water,0,water,0,44496
100,299,0,water,0,water,0,44496
100,300,0,water,0,water,0,44496
100,190,1.885,water,0,water,0,44496
100,191,2.006,water,0,water,0,44496
100,192,2.1,water,0,water,0,44496
100,193,2.171,water,0,water,0,44496
100,194,2.18,water,0,water,0,44496
100,195,2.201,water,0,water,0,44496
100,196,2.256,water,0,water,0,44496
100,197,2.287,water,0,water,0,44496
100,198,2.278,water,0,water,0,44496
100,199,2.22,water,0,water,0,44496
100,200,2.175,water,0,water,0,44496
100,201,2.178,water,0,water,0,44496
100,202,2.096,water,0,water,0,44496
100,203,1.809,water,0,water,0,44496
100,204,1.426,water,0,water,0,44496
100,205,1.067,water,0,water,0,44496
100,206,0.807,water,0,water,0,44496
100,207,0.618,water,0,water,0,44496
100,208,0.434,water,0,water,0,44496
100,209,0.312,water,0,water,0,44496
100,210,0.228,water,0,water,0,44496
100,211,0.157,water,0,water,0,44496
100,212,0.116,water,0,water,0,44496
100,213,0.084,water,0,water,0,44496
100,214,0.06,water,0,water,0,44496
100,215,0.044,water,0,water,0,44496
100,216,0.032,water,0,water,0,44496
100,217,0.024,water,0,water,0,44496
100,218,0.019,water,0,water,0,44496
100,219,0.015,water,0,water,0,44496
100,220,0.012,water,0,water,0,44496
100,221,0.01,water,0,water,0,44496
100,222,0.009,water,0,water,0,44496
100,223,0.008,water,0,water,0,44496
100,224,0.007,water,0,water,0,44496
100,225,0.004,water,0,water,0,44496
100,226,0.006,water,0,water,0,44496
100,227,0.006,water,0,water,0,44496
100,228,0.005,water,0,water,0,44496
100,229,0.005,water,0,water,0,44496
100,230,0.005,water,0,water,0,44496
100,231,0.005,water,0,water,0,44496
100,232,0.005,water,0,water,0,44496
100,233,0.004,water,0,water,0,44496
100,234,0.004,water,0,water,0,44496
100,235,0.004,water,0,water,0,44496
100,236,0.004,water,0,water,0,44496
100,237,0.004,water,0,water,0,44496
100,238,0.004,water,0,water,0,44496
100,239,0.003,water,0,water,0,44496
100,240,0.003,water,0,water,0,44496
100,241,0.003,water,0,water,0,44496
100,242,0.003,water,0,water,0,44496
100,243,0.003,water,0,water,0,44496
100,244,0.003,water,0,water,0,44496
100,245,0.003,water,0,water,0,44496
100,246,0.003,water,0,water,0,44496
100,247,0.003,water,0,water,0,44496
100,248,0.003,water,0,water,0,44496
100,249,0.003,water,0,water,0,44496
100,250,0.003,water,0,water,0,44496
100,251,0.003,water,0,water,0,44496
100,252,0.002,water,0,water,0,44496
100,253,0.002,water,0,water,0,44496
100,254,0.003,water,0,water,0,44496
100,255,0.002,water,0,water,0,44496
100,256,0.002,water,0,water,0,44496
100,257,0.002,water,0,water,0,44496
100,258,0.001,water,0,water,0,44496
100,259,0.002,water,0,water,0,44496
100,260,0.002,water,0,water,0,44496
100,261,0.002,water,0,water,0,44496
100,262,0.001,water,0,water,0,44496
100,263,0.001,water,0,water,0,44496
100,264,0.001,water,0,water,0,44496
100,265,0.001,water,0,water,0,44496
100,266,0.001,water,0,water,0,44496
100,267,0.001,water,0,water,0,44496
100,268,0.001,water,0,water,0,44496
100,269,0.001,water,0,water,0,44496
100,270,0,water,0,water,0,44496
100,271,0,water,0,water,0,44496
100,272,0,water,0,water,0,44496
100,273,0,water,0,water,0,44496
100,274,0,water,0,water,0,44496
100,275,0,water,0,water,0,44496
100,276,0,water,0,water,0,44496
100,277,0,water,0,water,0,44496
100,278,0,water,0,water,0,44496
100,279,0,water,0,water,0,44496
100,280,0,water,0,water,0,44496
100,281,0,water,0,water,0,44496
100,282,-0.001,water,0,water,0,44496
100,283,0,water,0,water,0,44496
100,284,-0.001,water,0,water,0,44496
100,285,-0.001,water,0,water,0,44496
100,286,0,water,0,water,0,44496
100,287,-0.001,water,0,water,0,44496
100,288,-0.001,water,0,water,0,44496
100,289,-0.001,water,0,water,0,44496
100,290,-0.001,water,0,water,0,44496
100,291,0,water,0,water,0,44496
100,292,0,water,0,water,0,44496
100,293,-0.001,water,0,water,0,44496
100,294,-0.001,water,0,water,0,44496
100,295,-0.001,water,0,water,0,44496
100,296,-0.001,water,0,water,0,44496
100,297,-0.001,water,0,water,0,44496
100,298,-0.001,water,0,water,0,44496
100,299,-0.001,water,0,water,0,44496
100,300,-0.001,water,0,water,0,44496
100,190,1.894,water,0,water,0,44496
100,191,1.99,water,0,water,0,44496
100,192,2.115,water,0,water,0,44496
100,193,2.17,water,0,water,0,44496
100,194,2.184,water,0,water,0,44496
100,195,2.199,water,0,water,0,44496
100,196,2.251,water,0,water,0,44496
100,197,2.284,water,0,water,0,44496
100,198,2.271,water,0,water,0,44496
100,199,2.223,water,0,water,0,44496
100,200,2.183,water,0,water,0,44496
100,201,2.178,water,0,water,0,44496
100,202,2.098,water,0,water,0,44496
100,203,1.818,water,0,water,0,44496
100,204,1.432,water,0,water,0,44496
100,205,1.081,water,0,water,0,44496
100,206,0.815,water,0,water,0,44496
100,207,0.626,water,0,water,0,44496
100,208,0.444,water,0,water,0,44496
100,209,0.319,water,0,water,0,44496
100,210,0.235,water,0,water,0,44496
100,211,0.166,water,0,water,0,44496
100,212,0.123,water,0,water,0,44496
100,213,0.091,water,0,water,0,44496
100,214,0.067,water,0,water,0,44496
100,215,0.05,water,0,water,0,44496
100,216,0.039,water,0,water,0,44496
100,217,0.03,water,0,water,0,44496
100,218,0.025,water,0,water,0,44496
100,219,0.021,water,0,water,0,44496
100,220,0.018,water,0,water,0,44496
100,221,0.016,water,0,water,0,44496
100,222,0.014,water,0,water,0,44496
100,223,0.013,water,0,water,0,44496
100,224,0.012,water,0,water,0,44496
100,225,0.01,water,0,water,0,44496
100,226,0.012,water,0,water,0,44496
100,227,0.011,water,0,water,0,44496
100,228,0.01,water,0,water,0,44496
100,229,0.01,water,0,water,0,44496
100,230,0.009,water,0,water,0,44496
100,231,0.009,water,0,water,0,44496
100,232,0.009,water,0,water,0,44496
100,233,0.008,water,0,water,0,44496
100,234,0.008,water,0,water,0,44496
100,235,0.008,water,0,water,0,44496
100,236,0.007,water,0,water,0,44496
100,237,0.007,water,0,water,0,44496
100,238,0.007,water,0,water,0,44496
100,239,0.006,water,0,water,0,44496
100,240,0.007,water,0,water,0,44496
100,241,0.007,water,0,water,0,44496
100,242,0.006,water,0,water,0,44496
100,243,0.006,water,0,water,0,44496
100,244,0.006,water,0,water,0,44496
100,245,0.006,water,0,water,0,44496
100,246,0.005,water,0,water,0,44496
100,247,0.005,water,0,water,0,44496
100,248,0.005,water,0,water,0,44496
100,249,0.005,water,0,water,0,44496
100,250,0.005,water,0,water,0,44496
100,251,0.005,water,0,water,0,44496
100,252,0.004,water,0,water,0,44496
100,253,0.004,water,0,water,0,44496
100,254,0.005,water,0,water,0,44496
100,255,0.004,water,0,water,0,44496
100,256,0.004,water,0,water,0,44496
100,257,0.004,water,0,water,0,44496
100,258,0.003,water,0,water,0,44496
100,259,0.004,water,0,water,0,44496
100,260,0.004,water,0,water,0,44496
100,261,0.004,water,0,water,0,44496
100,262,0.003,water,0,water,0,44496
100,263,0.003,water,0,water,0,44496
100,264,0.003,water,0,water,0,44496
100,265,0.002,water,0,water,0,44496
100,266,0.002,water,0,water,0,44496
100,267,0.002,water,0,water,0,44496
100,268,0.002,water,0,water,0,44496
100,269,0.002,water,0,water,0,44496
100,270,0.002,water,0,water,0,44496
100,271,0.002,water,0,water,0,44496
100,272,0.002,water,0,water,0,44496
100,273,0.002,water,0,water,0,44496
100,274,0.002,water,0,water,0,44496
100,275,0.002,water,0,water,0,44496
100,276,0.001,water,0,water,0,44496
100,277,0.001,water,0,water,0,44496
100,278,0.001,water,0,water,0,44496
100,279,0.001,water,0,water,0,44496
100,280,0.001,water,0,water,0,44496
100,281,0.001,water,0,water,0,44496
100,282,0.001,water,0,water,0,44496
100,283,0.001,water,0,water,0,44496
100,284,0.001,water,0,water,0,44496
100,285,0.001,water,0,water,0,44496
100,286,0.001,water,0,water,0,44496
100,287,0.001,water,0,water,0,44496
100,288,0.001,water,0,water,0,44496
100,289,0.001,water,0,water,0,44496
100,290,0.001,water,0,water,0,44496
100,291,0.001,water,0,water,0,44496
100,292,0.001,water,0,water,0,44496
100,293,0,water,0,water,0,44496
100,294,0,water,0,water,0,44496
100,295,0.001,water,0,water,0,44496
100,296,0,water,0,water,0,44496
100,297,0,water,0,water,0,44496
100,298,0,water,0,water,0,44496
100,299,0,water,0,water,0,44496
100,300,0,water,0,water,0,44496
